time,T_int,T_ext_1,Film_Coef,Density,Specific_Heat,Thermal_Conductivity,Radius
1.0,21.9997463226,22.88,0.036,2.71e-09,1221000000.0,205.0,25
2.0,21.9993915558,23.76,0.036,2.71e-09,1221000000.0,205.0,25
3.0,21.9989433289,24.64,0.036,2.71e-09,1221000000.0,205.0,25
4.0,21.998169899,25.52,0.036,2.71e-09,1221000000.0,205.0,25
5.0,21.9973964691,26.4,0.036,2.71e-09,1221000000.0,205.0,25
6.0,21.996055603025,27.28,0.036,2.71e-09,1221000000.0,205.0,25
7.0,21.99471473695,28.16,0.036,2.71e-09,1221000000.0,205.0,25
8.0,21.993373870875,29.04,0.036,2.71e-09,1221000000.0,205.0,25
9.0,21.9920330048,29.92,0.036,2.71e-09,1221000000.0,205.0,25
10.0,21.990923404725,30.8,0.036,2.71e-09,1221000000.0,205.0,25
11.0,21.98981380465,31.68,0.036,2.71e-09,1221000000.0,205.0,25
12.0,21.988704204575,32.56,0.036,2.71e-09,1221000000.0,205.0,25
13.0,21.9875946045,33.44,0.036,2.71e-09,1221000000.0,205.0,25
14.0,21.986485004425,34.32,0.036,2.71e-09,1221000000.0,205.0,25
15.0,21.98537540435,35.2,0.036,2.71e-09,1221000000.0,205.0,25
16.0,21.984265804275,36.08,0.036,2.71e-09,1221000000.0,205.0,25
17.0,21.9831562042,36.96,0.036,2.71e-09,1221000000.0,205.0,25
18.0,21.98374423979,37.84,0.036,2.71e-09,1221000000.0,205.0,25
19.0,21.98433227538,38.72,0.036,2.71e-09,1221000000.0,205.0,25
20.0,21.98492031097,39.6,0.036,2.71e-09,1221000000.0,205.0,25
21.0,21.98550834656,40.48,0.036,2.71e-09,1221000000.0,205.0,25
22.0,21.98609638215,41.36,0.036,2.71e-09,1221000000.0,205.0,25
23.0,21.98668441774,42.24,0.036,2.71e-09,1221000000.0,205.0,25
24.0,21.98727245333,43.12,0.036,2.71e-09,1221000000.0,205.0,25
25.0,21.98786048892,44.0,0.036,2.71e-09,1221000000.0,205.0,25
26.0,21.98844852451,44.88,0.036,2.71e-09,1221000000.0,205.0,25
27.0,21.9890365601,45.76,0.036,2.71e-09,1221000000.0,205.0,25
28.0,21.99203948978,46.64,0.036,2.71e-09,1221000000.0,205.0,25
29.0,21.99504241946,47.52,0.036,2.71e-09,1221000000.0,205.0,25
30.0,21.99804534914,48.4,0.036,2.71e-09,1221000000.0,205.0,25
31.0,22.00104827882,49.28,0.036,2.71e-09,1221000000.0,205.0,25
32.0,22.0040512085,50.16,0.036,2.71e-09,1221000000.0,205.0,25
33.0,22.00705413818,51.04,0.036,2.71e-09,1221000000.0,205.0,25
34.0,22.01005706786,51.92,0.036,2.71e-09,1221000000.0,205.0,25
35.0,22.01305999754,52.8,0.036,2.71e-09,1221000000.0,205.0,25
36.0,22.01606292722,53.68,0.036,2.71e-09,1221000000.0,205.0,25
37.0,22.0190658569,54.56,0.036,2.71e-09,1221000000.0,205.0,25
38.0,22.02482357022,55.44,0.036,2.71e-09,1221000000.0,205.0,25
39.0,22.03058128354,56.32,0.036,2.71e-09,1221000000.0,205.0,25
40.0,22.03633899686,57.2,0.036,2.71e-09,1221000000.0,205.0,25
41.0,22.04209671018,58.08,0.036,2.71e-09,1221000000.0,205.0,25
42.0,22.0478544235,58.96,0.036,2.71e-09,1221000000.0,205.0,25
43.0,22.05361213682,59.84,0.036,2.71e-09,1221000000.0,205.0,25
44.0,22.05936985014,60.72,0.036,2.71e-09,1221000000.0,205.0,25
45.0,22.06512756346,61.6,0.036,2.71e-09,1221000000.0,205.0,25
46.0,22.07088527678,62.48,0.036,2.71e-09,1221000000.0,205.0,25
47.0,22.0766429901,63.36,0.036,2.71e-09,1221000000.0,205.0,25
48.0,22.08441181182,64.24,0.036,2.71e-09,1221000000.0,205.0,25
49.0,22.09218063354,65.12,0.036,2.71e-09,1221000000.0,205.0,25
50.0,22.09994945526,66.0,0.036,2.71e-09,1221000000.0,205.0,25
51.0,22.10771827698,62.94,0.036,2.71e-09,1221000000.0,205.0,25
52.0,22.1154870987,62.88,0.036,2.71e-09,1221000000.0,205.0,25
53.0,22.12325592042,62.82,0.036,2.71e-09,1221000000.0,205.0,25
54.0,22.13102474214,62.76,0.036,2.71e-09,1221000000.0,205.0,25
55.0,22.13879356386,62.7,0.036,2.71e-09,1221000000.0,205.0,25
56.0,22.14656238558,62.64,0.036,2.71e-09,1221000000.0,205.0,25
57.0,22.1543312073,62.58,0.036,2.71e-09,1221000000.0,205.0,25
58.0,22.16312618258,62.52,0.036,2.71e-09,1221000000.0,205.0,25
59.0,22.17192115786,62.46,0.036,2.71e-09,1221000000.0,205.0,25
60.0,22.18071613314,62.4,0.036,2.71e-09,1221000000.0,205.0,25
61.0,22.18951110842,62.34,0.036,2.71e-09,1221000000.0,205.0,25
62.0,22.1983060837,62.28,0.036,2.71e-09,1221000000.0,205.0,25
63.0,22.20710105898,62.22,0.036,2.71e-09,1221000000.0,205.0,25
64.0,22.21589603426,62.16,0.036,2.71e-09,1221000000.0,205.0,25
65.0,22.22469100954,62.1,0.036,2.71e-09,1221000000.0,205.0,25
66.0,22.23348598482,62.04,0.036,2.71e-09,1221000000.0,205.0,25
67.0,22.2422809601,61.98,0.036,2.71e-09,1221000000.0,205.0,25
68.0,22.2514612198,61.92,0.036,2.71e-09,1221000000.0,205.0,25
69.0,22.2606414795,61.86,0.036,2.71e-09,1221000000.0,205.0,25
70.0,22.2698217392,61.8,0.036,2.71e-09,1221000000.0,205.0,25
71.0,22.2790019989,61.74,0.036,2.71e-09,1221000000.0,205.0,25
72.0,22.2881822586,61.68,0.036,2.71e-09,1221000000.0,205.0,25
73.0,22.2973625183,61.62,0.036,2.71e-09,1221000000.0,205.0,25
74.0,22.306542778,61.56,0.036,2.71e-09,1221000000.0,205.0,25
75.0,22.3157230377,61.5,0.036,2.71e-09,1221000000.0,205.0,25
76.0,22.3249032974,61.44,0.036,2.71e-09,1221000000.0,205.0,25
77.0,22.3340835571,61.38,0.036,2.71e-09,1221000000.0,205.0,25
78.0,22.34330520627,61.32,0.036,2.71e-09,1221000000.0,205.0,25
79.0,22.35252685544,61.26,0.036,2.71e-09,1221000000.0,205.0,25
80.0,22.36174850461,61.2,0.036,2.71e-09,1221000000.0,205.0,25
81.0,22.37097015378,61.14,0.036,2.71e-09,1221000000.0,205.0,25
82.0,22.38019180295,61.08,0.036,2.71e-09,1221000000.0,205.0,25
83.0,22.38941345212,61.02,0.036,2.71e-09,1221000000.0,205.0,25
84.0,22.39863510129,60.96,0.036,2.71e-09,1221000000.0,205.0,25
85.0,22.40785675046,60.9,0.036,2.71e-09,1221000000.0,205.0,25
86.0,22.41707839963,60.84,0.036,2.71e-09,1221000000.0,205.0,25
87.0,22.4263000488,60.78,0.036,2.71e-09,1221000000.0,205.0,25
88.0,22.43539352414,60.72,0.036,2.71e-09,1221000000.0,205.0,25
89.0,22.44448699948,60.66,0.036,2.71e-09,1221000000.0,205.0,25
90.0,22.45358047482,60.6,0.036,2.71e-09,1221000000.0,205.0,25
91.0,22.46267395016,60.54,0.036,2.71e-09,1221000000.0,205.0,25
92.0,22.4717674255,60.48,0.036,2.71e-09,1221000000.0,205.0,25
93.0,22.48086090084,60.42,0.036,2.71e-09,1221000000.0,205.0,25
94.0,22.48995437618,60.36,0.036,2.71e-09,1221000000.0,205.0,25
95.0,22.49904785152,60.3,0.036,2.71e-09,1221000000.0,205.0,25
96.0,22.50814132686,60.24,0.036,2.71e-09,1221000000.0,205.0,25
97.0,22.5172348022,60.18,0.036,2.71e-09,1221000000.0,205.0,25
98.0,22.52619323726,60.12,0.036,2.71e-09,1221000000.0,205.0,25
99.0,22.53515167232,60.06,0.036,2.71e-09,1221000000.0,205.0,25
100.0,22.54411010738,60.0,0.036,2.71e-09,1221000000.0,205.0,25
101.0,22.55306854244,60,0.036,2.71e-09,1221000000.0,205.0,25
102.0,22.5620269775,60,0.036,2.71e-09,1221000000.0,205.0,25
103.0,22.57098541256,60,0.036,2.71e-09,1221000000.0,205.0,25
104.0,22.57994384762,60,0.036,2.71e-09,1221000000.0,205.0,25
105.0,22.58890228268,60,0.036,2.71e-09,1221000000.0,205.0,25
106.0,22.59786071774,60,0.036,2.71e-09,1221000000.0,205.0,25
107.0,22.6068191528,60,0.036,2.71e-09,1221000000.0,205.0,25
108.0,22.61569042203,60,0.036,2.71e-09,1221000000.0,205.0,25
109.0,22.62456169126,60,0.036,2.71e-09,1221000000.0,205.0,25
110.0,22.63343296049,60,0.036,2.71e-09,1221000000.0,205.0,25
111.0,22.64230422972,60,0.036,2.71e-09,1221000000.0,205.0,25
112.0,22.65117549895,60,0.036,2.71e-09,1221000000.0,205.0,25
113.0,22.66004676818,60,0.036,2.71e-09,1221000000.0,205.0,25
114.0,22.66891803741,60,0.036,2.71e-09,1221000000.0,205.0,25
115.0,22.67778930664,60,0.036,2.71e-09,1221000000.0,205.0,25
116.0,22.68666057587,60,0.036,2.71e-09,1221000000.0,205.0,25
117.0,22.6955318451,60,0.036,2.71e-09,1221000000.0,205.0,25
118.0,22.70435142518,60,0.036,2.71e-09,1221000000.0,205.0,25
119.0,22.71317100526,60,0.036,2.71e-09,1221000000.0,205.0,25
120.0,22.72199058534,60,0.036,2.71e-09,1221000000.0,205.0,25
121.0,22.73081016542,60,0.036,2.71e-09,1221000000.0,205.0,25
122.0,22.7396297455,60,0.036,2.71e-09,1221000000.0,205.0,25
123.0,22.74844932558,60,0.036,2.71e-09,1221000000.0,205.0,25
124.0,22.75726890566,60,0.036,2.71e-09,1221000000.0,205.0,25
125.0,22.76608848574,60,0.036,2.71e-09,1221000000.0,205.0,25
126.0,22.77490806582,60,0.036,2.71e-09,1221000000.0,205.0,25
127.0,22.7837276459,60,0.036,2.71e-09,1221000000.0,205.0,25
128.0,22.79251441958,60,0.036,2.71e-09,1221000000.0,205.0,25
129.0,22.80130119326,60,0.036,2.71e-09,1221000000.0,205.0,25
130.0,22.81008796694,60,0.036,2.71e-09,1221000000.0,205.0,25
131.0,22.81887474062,60,0.036,2.71e-09,1221000000.0,205.0,25
132.0,22.8276615143,60,0.036,2.71e-09,1221000000.0,205.0,25
133.0,22.83644828798,60,0.036,2.71e-09,1221000000.0,205.0,25
134.0,22.84523506166,60,0.036,2.71e-09,1221000000.0,205.0,25
135.0,22.85402183534,60,0.036,2.71e-09,1221000000.0,205.0,25
136.0,22.86280860902,60,0.036,2.71e-09,1221000000.0,205.0,25
137.0,22.8715953827,60,0.036,2.71e-09,1221000000.0,205.0,25
138.0,22.88035812379,60,0.036,2.71e-09,1221000000.0,205.0,25
139.0,22.88912086488,60,0.036,2.71e-09,1221000000.0,205.0,25
140.0,22.89788360597,60,0.036,2.71e-09,1221000000.0,205.0,25
141.0,22.90664634706,60,0.036,2.71e-09,1221000000.0,205.0,25
142.0,22.91540908815,60,0.036,2.71e-09,1221000000.0,205.0,25
143.0,22.92417182924,60,0.036,2.71e-09,1221000000.0,205.0,25
144.0,22.93293457033,60,0.036,2.71e-09,1221000000.0,205.0,25
145.0,22.94169731142,60,0.036,2.71e-09,1221000000.0,205.0,25
146.0,22.95046005251,60,0.036,2.71e-09,1221000000.0,205.0,25
147.0,22.9592227936,60,0.036,2.71e-09,1221000000.0,205.0,25
148.0,22.96796493532,60,0.036,2.71e-09,1221000000.0,205.0,25
149.0,22.97670707704,60,0.036,2.71e-09,1221000000.0,205.0,25
150.0,22.98544921876,60,0.036,2.71e-09,1221000000.0,205.0,25
151.0,22.99419136048,60,0.036,2.71e-09,1221000000.0,205.0,25
152.0,23.0029335022,60,0.036,2.71e-09,1221000000.0,205.0,25
153.0,23.01167564392,60,0.036,2.71e-09,1221000000.0,205.0,25
154.0,23.02041778564,60,0.036,2.71e-09,1221000000.0,205.0,25
155.0,23.02915992736,60,0.036,2.71e-09,1221000000.0,205.0,25
156.0,23.03790206908,60,0.036,2.71e-09,1221000000.0,205.0,25
157.0,23.0466442108,60,0.036,2.71e-09,1221000000.0,205.0,25
158.0,23.0553670883,60,0.036,2.71e-09,1221000000.0,205.0,25
159.0,23.0640899658,60,0.036,2.71e-09,1221000000.0,205.0,25
160.0,23.0728128433,60,0.036,2.71e-09,1221000000.0,205.0,25
161.0,23.0815357208,60,0.036,2.71e-09,1221000000.0,205.0,25
162.0,23.0902585983,60,0.036,2.71e-09,1221000000.0,205.0,25
163.0,23.0989814758,60,0.036,2.71e-09,1221000000.0,205.0,25
164.0,23.1077043533,60,0.036,2.71e-09,1221000000.0,205.0,25
165.0,23.1164272308,60,0.036,2.71e-09,1221000000.0,205.0,25
166.0,23.1251501083,60,0.036,2.71e-09,1221000000.0,205.0,25
167.0,23.1338729858,60,0.036,2.71e-09,1221000000.0,205.0,25
168.0,23.14257698055,60,0.036,2.71e-09,1221000000.0,205.0,25
169.0,23.1512809753,60,0.036,2.71e-09,1221000000.0,205.0,25
170.0,23.15998497005,60,0.036,2.71e-09,1221000000.0,205.0,25
171.0,23.1686889648,60,0.036,2.71e-09,1221000000.0,205.0,25
172.0,23.17739295955,60,0.036,2.71e-09,1221000000.0,205.0,25
173.0,23.1860969543,60,0.036,2.71e-09,1221000000.0,205.0,25
174.0,23.19480094905,60,0.036,2.71e-09,1221000000.0,205.0,25
175.0,23.2035049438,60,0.036,2.71e-09,1221000000.0,205.0,25
176.0,23.21220893855,60,0.036,2.71e-09,1221000000.0,205.0,25
177.0,23.2209129333,60,0.036,2.71e-09,1221000000.0,205.0,25
178.0,23.2295980453,60,0.036,2.71e-09,1221000000.0,205.0,25
179.0,23.2382831573,60,0.036,2.71e-09,1221000000.0,205.0,25
180.0,23.2469682693,60,0.036,2.71e-09,1221000000.0,205.0,25
181.0,23.2556533813,60,0.036,2.71e-09,1221000000.0,205.0,25
182.0,23.2643384933,60,0.036,2.71e-09,1221000000.0,205.0,25
183.0,23.2730236053,60,0.036,2.71e-09,1221000000.0,205.0,25
184.0,23.2817087173,60,0.036,2.71e-09,1221000000.0,205.0,25
185.0,23.2903938293,60,0.036,2.71e-09,1221000000.0,205.0,25
186.0,23.2990789413,60,0.036,2.71e-09,1221000000.0,205.0,25
187.0,23.3077640533,60,0.036,2.71e-09,1221000000.0,205.0,25
188.0,23.31643028255,60,0.036,2.71e-09,1221000000.0,205.0,25
189.0,23.3250965118,60,0.036,2.71e-09,1221000000.0,205.0,25
190.0,23.33376274105,60,0.036,2.71e-09,1221000000.0,205.0,25
191.0,23.3424289703,60,0.036,2.71e-09,1221000000.0,205.0,25
192.0,23.35109519955,60,0.036,2.71e-09,1221000000.0,205.0,25
193.0,23.3597614288,60,0.036,2.71e-09,1221000000.0,205.0,25
194.0,23.36842765805,60,0.036,2.71e-09,1221000000.0,205.0,25
195.0,23.3770938873,60,0.036,2.71e-09,1221000000.0,205.0,25
196.0,23.38576011655,60,0.036,2.71e-09,1221000000.0,205.0,25
197.0,23.3944263458,60,0.036,2.71e-09,1221000000.0,205.0,25
198.0,23.40307350156,60,0.036,2.71e-09,1221000000.0,205.0,25
199.0,23.41172065732,60,0.036,2.71e-09,1221000000.0,205.0,25
200.0,23.42036781308,60,0.036,2.71e-09,1221000000.0,205.0,25
201.0,23.42901496884,60,0.036,2.71e-09,1221000000.0,205.0,25
202.0,23.4376621246,60,0.036,2.71e-09,1221000000.0,205.0,25
203.0,23.44630928036,60,0.036,2.71e-09,1221000000.0,205.0,25
204.0,23.45495643612,60,0.036,2.71e-09,1221000000.0,205.0,25
205.0,23.46360359188,60,0.036,2.71e-09,1221000000.0,205.0,25
206.0,23.47225074764,60,0.036,2.71e-09,1221000000.0,205.0,25
207.0,23.4808979034,60,0.036,2.71e-09,1221000000.0,205.0,25
208.0,23.48952579494,60,0.036,2.71e-09,1221000000.0,205.0,25
209.0,23.49815368648,60,0.036,2.71e-09,1221000000.0,205.0,25
210.0,23.50678157802,60,0.036,2.71e-09,1221000000.0,205.0,25
211.0,23.51540946956,60,0.036,2.71e-09,1221000000.0,205.0,25
212.0,23.5240373611,60,0.036,2.71e-09,1221000000.0,205.0,25
213.0,23.53266525264,60,0.036,2.71e-09,1221000000.0,205.0,25
214.0,23.54129314418,60,0.036,2.71e-09,1221000000.0,205.0,25
215.0,23.54992103572,60,0.036,2.71e-09,1221000000.0,205.0,25
216.0,23.55854892726,60,0.036,2.71e-09,1221000000.0,205.0,25
217.0,23.5671768188,60,0.036,2.71e-09,1221000000.0,205.0,25
218.0,23.57578544612,60,0.036,2.71e-09,1221000000.0,205.0,25
219.0,23.58439407344,60,0.036,2.71e-09,1221000000.0,205.0,25
220.0,23.59300270076,60,0.036,2.71e-09,1221000000.0,205.0,25
221.0,23.60161132808,60,0.036,2.71e-09,1221000000.0,205.0,25
222.0,23.6102199554,60,0.036,2.71e-09,1221000000.0,205.0,25
223.0,23.61882858272,60,0.036,2.71e-09,1221000000.0,205.0,25
224.0,23.62743721004,60,0.036,2.71e-09,1221000000.0,205.0,25
225.0,23.63604583736,60,0.036,2.71e-09,1221000000.0,205.0,25
226.0,23.64465446468,60,0.036,2.71e-09,1221000000.0,205.0,25
227.0,23.653263092,60,0.036,2.71e-09,1221000000.0,205.0,25
228.0,23.66185226437,60,0.036,2.71e-09,1221000000.0,205.0,25
229.0,23.67044143674,60,0.036,2.71e-09,1221000000.0,205.0,25
230.0,23.67903060911,60,0.036,2.71e-09,1221000000.0,205.0,25
231.0,23.68761978148,60,0.036,2.71e-09,1221000000.0,205.0,25
232.0,23.69620895385,60,0.036,2.71e-09,1221000000.0,205.0,25
233.0,23.70479812622,60,0.036,2.71e-09,1221000000.0,205.0,25
234.0,23.71338729859,60,0.036,2.71e-09,1221000000.0,205.0,25
235.0,23.72197647096,60,0.036,2.71e-09,1221000000.0,205.0,25
236.0,23.73056564333,60,0.036,2.71e-09,1221000000.0,205.0,25
237.0,23.7391548157,60,0.036,2.71e-09,1221000000.0,205.0,25
238.0,23.74772434237,60,0.036,2.71e-09,1221000000.0,205.0,25
239.0,23.75629386904,60,0.036,2.71e-09,1221000000.0,205.0,25
240.0,23.76486339571,60,0.036,2.71e-09,1221000000.0,205.0,25
241.0,23.77343292238,60,0.036,2.71e-09,1221000000.0,205.0,25
242.0,23.78200244905,60,0.036,2.71e-09,1221000000.0,205.0,25
243.0,23.79057197572,60,0.036,2.71e-09,1221000000.0,205.0,25
244.0,23.79914150239,60,0.036,2.71e-09,1221000000.0,205.0,25
245.0,23.80771102906,60,0.036,2.71e-09,1221000000.0,205.0,25
246.0,23.81628055573,60,0.036,2.71e-09,1221000000.0,205.0,25
247.0,23.8248500824,60,0.036,2.71e-09,1221000000.0,205.0,25
248.0,23.83339996338,60,0.036,2.71e-09,1221000000.0,205.0,25
249.0,23.84194984436,60,0.036,2.71e-09,1221000000.0,205.0,25
250.0,23.85049972534,60,0.036,2.71e-09,1221000000.0,205.0,25
251.0,23.85904960632,60,0.036,2.71e-09,1221000000.0,205.0,25
252.0,23.8675994873,60,0.036,2.71e-09,1221000000.0,205.0,25
253.0,23.87614936828,60,0.036,2.71e-09,1221000000.0,205.0,25
254.0,23.88469924926,60,0.036,2.71e-09,1221000000.0,205.0,25
255.0,23.89324913024,60,0.036,2.71e-09,1221000000.0,205.0,25
256.0,23.90179901122,60,0.036,2.71e-09,1221000000.0,205.0,25
257.0,23.9103488922,60,0.036,2.71e-09,1221000000.0,205.0,25
258.0,23.91887912749,60,0.036,2.71e-09,1221000000.0,205.0,25
259.0,23.92740936278,60,0.036,2.71e-09,1221000000.0,205.0,25
260.0,23.93593959807,60,0.036,2.71e-09,1221000000.0,205.0,25
261.0,23.94446983336,60,0.036,2.71e-09,1221000000.0,205.0,25
262.0,23.95300006865,60,0.036,2.71e-09,1221000000.0,205.0,25
263.0,23.96153030394,60,0.036,2.71e-09,1221000000.0,205.0,25
264.0,23.97006053923,60,0.036,2.71e-09,1221000000.0,205.0,25
265.0,23.97859077452,60,0.036,2.71e-09,1221000000.0,205.0,25
266.0,23.98712100981,60,0.036,2.71e-09,1221000000.0,205.0,25
267.0,23.9956512451,60,0.036,2.71e-09,1221000000.0,205.0,25
268.0,24.00416164397,60,0.036,2.71e-09,1221000000.0,205.0,25
269.0,24.01267204284,60,0.036,2.71e-09,1221000000.0,205.0,25
270.0,24.02118244171,60,0.036,2.71e-09,1221000000.0,205.0,25
271.0,24.02969284058,60,0.036,2.71e-09,1221000000.0,205.0,25
272.0,24.03820323945,60,0.036,2.71e-09,1221000000.0,205.0,25
273.0,24.04671363832,60,0.036,2.71e-09,1221000000.0,205.0,25
274.0,24.05522403719,60,0.036,2.71e-09,1221000000.0,205.0,25
275.0,24.06373443606,60,0.036,2.71e-09,1221000000.0,205.0,25
276.0,24.07224483493,60,0.036,2.71e-09,1221000000.0,205.0,25
277.0,24.0807552338,60,0.036,2.71e-09,1221000000.0,205.0,25
278.0,24.08924598697,60,0.036,2.71e-09,1221000000.0,205.0,25
279.0,24.09773674014,60,0.036,2.71e-09,1221000000.0,205.0,25
280.0,24.10622749331,60,0.036,2.71e-09,1221000000.0,205.0,25
281.0,24.11471824648,60,0.036,2.71e-09,1221000000.0,205.0,25
282.0,24.12320899965,60,0.036,2.71e-09,1221000000.0,205.0,25
283.0,24.13169975282,60,0.036,2.71e-09,1221000000.0,205.0,25
284.0,24.14019050599,60,0.036,2.71e-09,1221000000.0,205.0,25
285.0,24.14868125916,60,0.036,2.71e-09,1221000000.0,205.0,25
286.0,24.15717201233,60,0.036,2.71e-09,1221000000.0,205.0,25
287.0,24.1656627655,60,0.036,2.71e-09,1221000000.0,205.0,25
288.0,24.17413387298,60,0.036,2.71e-09,1221000000.0,205.0,25
289.0,24.18260498046,60,0.036,2.71e-09,1221000000.0,205.0,25
290.0,24.19107608794,60,0.036,2.71e-09,1221000000.0,205.0,25
291.0,24.19954719542,60,0.036,2.71e-09,1221000000.0,205.0,25
292.0,24.2080183029,60,0.036,2.71e-09,1221000000.0,205.0,25
293.0,24.21648941038,60,0.036,2.71e-09,1221000000.0,205.0,25
294.0,24.22496051786,60,0.036,2.71e-09,1221000000.0,205.0,25
295.0,24.23343162534,60,0.036,2.71e-09,1221000000.0,205.0,25
296.0,24.24190273282,60,0.036,2.71e-09,1221000000.0,205.0,25
297.0,24.2503738403,60,0.036,2.71e-09,1221000000.0,205.0,25
298.0,24.25882492063,60,0.036,2.71e-09,1221000000.0,205.0,25
299.0,24.26727600096,60,0.036,2.71e-09,1221000000.0,205.0,25
300.0,24.27572708129,60,0.036,2.71e-09,1221000000.0,205.0,25
301.0,24.28417816162,60,0.036,2.71e-09,1221000000.0,205.0,25
302.0,24.29262924195,60,0.036,2.71e-09,1221000000.0,205.0,25
303.0,24.30108032228,60,0.036,2.71e-09,1221000000.0,205.0,25
304.0,24.30953140261,60,0.036,2.71e-09,1221000000.0,205.0,25
305.0,24.31798248294,60,0.036,2.71e-09,1221000000.0,205.0,25
306.0,24.32643356327,60,0.036,2.71e-09,1221000000.0,205.0,25
307.0,24.3348846436,60,0.036,2.71e-09,1221000000.0,205.0,25
308.0,24.34331607823,60,0.036,2.71e-09,1221000000.0,205.0,25
309.0,24.35174751286,60,0.036,2.71e-09,1221000000.0,205.0,25
310.0,24.36017894749,60,0.036,2.71e-09,1221000000.0,205.0,25
311.0,24.36861038212,60,0.036,2.71e-09,1221000000.0,205.0,25
312.0,24.37704181675,60,0.036,2.71e-09,1221000000.0,205.0,25
313.0,24.38547325138,60,0.036,2.71e-09,1221000000.0,205.0,25
314.0,24.39390468601,60,0.036,2.71e-09,1221000000.0,205.0,25
315.0,24.40233612064,60,0.036,2.71e-09,1221000000.0,205.0,25
316.0,24.41076755527,60,0.036,2.71e-09,1221000000.0,205.0,25
317.0,24.4191989899,60,0.036,2.71e-09,1221000000.0,205.0,25
318.0,24.42761077884,60,0.036,2.71e-09,1221000000.0,205.0,25
319.0,24.43602256778,60,0.036,2.71e-09,1221000000.0,205.0,25
320.0,24.44443435672,60,0.036,2.71e-09,1221000000.0,205.0,25
321.0,24.45284614566,60,0.036,2.71e-09,1221000000.0,205.0,25
322.0,24.4612579346,60,0.036,2.71e-09,1221000000.0,205.0,25
323.0,24.46966972354,60,0.036,2.71e-09,1221000000.0,205.0,25
324.0,24.47808151248,60,0.036,2.71e-09,1221000000.0,205.0,25
325.0,24.48649330142,60,0.036,2.71e-09,1221000000.0,205.0,25
