time,T_int,T_ext_1,Film_Coef,Density,Specific_Heat,Thermal_Conductivity,Radius
1.0,21.9991092682,22.88,0.036,2.61e-09,721000000.0,205.0,25
2.0,21.9974746704,23.76,0.036,2.61e-09,721000000.0,205.0,25
3.0,21.9949131012,24.64,0.036,2.61e-09,721000000.0,205.0,25
4.0,21.99073314665,25.52,0.036,2.61e-09,721000000.0,205.0,25
5.0,21.9865531921,26.4,0.036,2.61e-09,721000000.0,205.0,25
6.0,21.981513977025,27.28,0.036,2.61e-09,721000000.0,205.0,25
7.0,21.97647476195,28.16,0.036,2.61e-09,721000000.0,205.0,25
8.0,21.971435546875,29.04,0.036,2.61e-09,721000000.0,205.0,25
9.0,21.9663963318,29.92,0.036,2.61e-09,721000000.0,205.0,25
10.0,21.9641168117625,30.8,0.036,2.61e-09,721000000.0,205.0,25
11.0,21.961837291725,31.68,0.036,2.61e-09,721000000.0,205.0,25
12.0,21.9595577716875,32.56,0.036,2.61e-09,721000000.0,205.0,25
13.0,21.95727825165,33.44,0.036,2.61e-09,721000000.0,205.0,25
14.0,21.9549987316125,34.32,0.036,2.61e-09,721000000.0,205.0,25
15.0,21.952719211575,35.2,0.036,2.61e-09,721000000.0,205.0,25
16.0,21.9504396915375,36.08,0.036,2.61e-09,721000000.0,205.0,25
17.0,21.9481601715,36.96,0.036,2.61e-09,721000000.0,205.0,25
18.0,21.95150756835,37.84,0.036,2.61e-09,721000000.0,205.0,25
19.0,21.9548549652,38.72,0.036,2.61e-09,721000000.0,205.0,25
20.0,21.95820236205,39.6,0.036,2.61e-09,721000000.0,205.0,25
21.0,21.9615497589,40.48,0.036,2.61e-09,721000000.0,205.0,25
22.0,21.96489715575,41.36,0.036,2.61e-09,721000000.0,205.0,25
23.0,21.9682445526,42.24,0.036,2.61e-09,721000000.0,205.0,25
24.0,21.97159194945,43.12,0.036,2.61e-09,721000000.0,205.0,25
25.0,21.9749393463,44.0,0.036,2.61e-09,721000000.0,205.0,25
26.0,21.97828674315,44.88,0.036,2.61e-09,721000000.0,205.0,25
27.0,21.98163414,45.76,0.036,2.61e-09,721000000.0,205.0,25
28.0,21.99125099181,46.64,0.036,2.61e-09,721000000.0,205.0,25
29.0,22.00086784362,47.52,0.036,2.61e-09,721000000.0,205.0,25
30.0,22.01048469543,48.4,0.036,2.61e-09,721000000.0,205.0,25
31.0,22.02010154724,49.28,0.036,2.61e-09,721000000.0,205.0,25
32.0,22.02971839905,50.16,0.036,2.61e-09,721000000.0,205.0,25
33.0,22.03933525086,51.04,0.036,2.61e-09,721000000.0,205.0,25
34.0,22.04895210267,51.92,0.036,2.61e-09,721000000.0,205.0,25
35.0,22.05856895448,52.8,0.036,2.61e-09,721000000.0,205.0,25
36.0,22.06818580629,53.68,0.036,2.61e-09,721000000.0,205.0,25
37.0,22.0778026581,54.56,0.036,2.61e-09,721000000.0,205.0,25
38.0,22.09387550356,55.44,0.036,2.61e-09,721000000.0,205.0,25
39.0,22.10994834902,56.32,0.036,2.61e-09,721000000.0,205.0,25
40.0,22.12602119448,57.2,0.036,2.61e-09,721000000.0,205.0,25
41.0,22.14209403994,58.08,0.036,2.61e-09,721000000.0,205.0,25
42.0,22.1581668854,58.96,0.036,2.61e-09,721000000.0,205.0,25
43.0,22.17423973086,59.84,0.036,2.61e-09,721000000.0,205.0,25
44.0,22.19031257632,60.72,0.036,2.61e-09,721000000.0,205.0,25
45.0,22.20638542178,61.6,0.036,2.61e-09,721000000.0,205.0,25
46.0,22.22245826724,62.48,0.036,2.61e-09,721000000.0,205.0,25
47.0,22.2385311127,63.36,0.036,2.61e-09,721000000.0,205.0,25
48.0,22.25809078219,64.24,0.036,2.61e-09,721000000.0,205.0,25
49.0,22.27765045168,65.12,0.036,2.61e-09,721000000.0,205.0,25
50.0,22.29721012117,66.0,0.036,2.61e-09,721000000.0,205.0,25
51.0,22.31676979066,62.94,0.036,2.61e-09,721000000.0,205.0,25
52.0,22.33632946015,62.88,0.036,2.61e-09,721000000.0,205.0,25
53.0,22.35588912964,62.82,0.036,2.61e-09,721000000.0,205.0,25
54.0,22.37544879913,62.76,0.036,2.61e-09,721000000.0,205.0,25
55.0,22.39500846862,62.7,0.036,2.61e-09,721000000.0,205.0,25
56.0,22.41456813811,62.64,0.036,2.61e-09,721000000.0,205.0,25
57.0,22.4341278076,62.58,0.036,2.61e-09,721000000.0,205.0,25
58.0,22.45455017088,62.52,0.036,2.61e-09,721000000.0,205.0,25
59.0,22.47497253416,62.46,0.036,2.61e-09,721000000.0,205.0,25
60.0,22.49539489744,62.4,0.036,2.61e-09,721000000.0,205.0,25
61.0,22.51581726072,62.34,0.036,2.61e-09,721000000.0,205.0,25
62.0,22.536239624,62.28,0.036,2.61e-09,721000000.0,205.0,25
63.0,22.55666198728,62.22,0.036,2.61e-09,721000000.0,205.0,25
64.0,22.57708435056,62.16,0.036,2.61e-09,721000000.0,205.0,25
65.0,22.59750671384,62.1,0.036,2.61e-09,721000000.0,205.0,25
66.0,22.61792907712,62.04,0.036,2.61e-09,721000000.0,205.0,25
67.0,22.6383514404,61.98,0.036,2.61e-09,721000000.0,205.0,25
68.0,22.65860252378,61.92,0.036,2.61e-09,721000000.0,205.0,25
69.0,22.67885360716,61.86,0.036,2.61e-09,721000000.0,205.0,25
70.0,22.69910469054,61.8,0.036,2.61e-09,721000000.0,205.0,25
71.0,22.71935577392,61.74,0.036,2.61e-09,721000000.0,205.0,25
72.0,22.7396068573,61.68,0.036,2.61e-09,721000000.0,205.0,25
73.0,22.75985794068,61.62,0.036,2.61e-09,721000000.0,205.0,25
74.0,22.78010902406,61.56,0.036,2.61e-09,721000000.0,205.0,25
75.0,22.80036010744,61.5,0.036,2.61e-09,721000000.0,205.0,25
76.0,22.82061119082,61.44,0.036,2.61e-09,721000000.0,205.0,25
77.0,22.8408622742,61.38,0.036,2.61e-09,721000000.0,205.0,25
78.0,22.86059741977,61.32,0.036,2.61e-09,721000000.0,205.0,25
79.0,22.88033256534,61.26,0.036,2.61e-09,721000000.0,205.0,25
80.0,22.90006771091,61.2,0.036,2.61e-09,721000000.0,205.0,25
81.0,22.91980285648,61.14,0.036,2.61e-09,721000000.0,205.0,25
82.0,22.93953800205,61.08,0.036,2.61e-09,721000000.0,205.0,25
83.0,22.95927314762,61.02,0.036,2.61e-09,721000000.0,205.0,25
84.0,22.97900829319,60.96,0.036,2.61e-09,721000000.0,205.0,25
85.0,22.99874343876,60.9,0.036,2.61e-09,721000000.0,205.0,25
86.0,23.01847858433,60.84,0.036,2.61e-09,721000000.0,205.0,25
87.0,23.0382137299,60.78,0.036,2.61e-09,721000000.0,205.0,25
88.0,23.05732135776,60.72,0.036,2.61e-09,721000000.0,205.0,25
89.0,23.07642898562,60.66,0.036,2.61e-09,721000000.0,205.0,25
90.0,23.09553661348,60.6,0.036,2.61e-09,721000000.0,205.0,25
91.0,23.11464424134,60.54,0.036,2.61e-09,721000000.0,205.0,25
92.0,23.1337518692,60.48,0.036,2.61e-09,721000000.0,205.0,25
93.0,23.15285949706,60.42,0.036,2.61e-09,721000000.0,205.0,25
94.0,23.17196712492,60.36,0.036,2.61e-09,721000000.0,205.0,25
95.0,23.19107475278,60.3,0.036,2.61e-09,721000000.0,205.0,25
96.0,23.21018238064,60.24,0.036,2.61e-09,721000000.0,205.0,25
97.0,23.2292900085,60.18,0.036,2.61e-09,721000000.0,205.0,25
98.0,23.24798336025,60.12,0.036,2.61e-09,721000000.0,205.0,25
99.0,23.266676712,60.06,0.036,2.61e-09,721000000.0,205.0,25
100.0,23.28537006375,60.0,0.036,2.61e-09,721000000.0,205.0,25
101.0,23.3040634155,60,0.036,2.61e-09,721000000.0,205.0,25
102.0,23.32275676725,60,0.036,2.61e-09,721000000.0,205.0,25
103.0,23.341450119,60,0.036,2.61e-09,721000000.0,205.0,25
104.0,23.36014347075,60,0.036,2.61e-09,721000000.0,205.0,25
105.0,23.3788368225,60,0.036,2.61e-09,721000000.0,205.0,25
106.0,23.39753017425,60,0.036,2.61e-09,721000000.0,205.0,25
107.0,23.416223526,60,0.036,2.61e-09,721000000.0,205.0,25
108.0,23.43470821381,60,0.036,2.61e-09,721000000.0,205.0,25
109.0,23.45319290162,60,0.036,2.61e-09,721000000.0,205.0,25
110.0,23.47167758943,60,0.036,2.61e-09,721000000.0,205.0,25
111.0,23.49016227724,60,0.036,2.61e-09,721000000.0,205.0,25
112.0,23.50864696505,60,0.036,2.61e-09,721000000.0,205.0,25
113.0,23.52713165286,60,0.036,2.61e-09,721000000.0,205.0,25
114.0,23.54561634067,60,0.036,2.61e-09,721000000.0,205.0,25
115.0,23.56410102848,60,0.036,2.61e-09,721000000.0,205.0,25
116.0,23.58258571629,60,0.036,2.61e-09,721000000.0,205.0,25
117.0,23.6010704041,60,0.036,2.61e-09,721000000.0,205.0,25
118.0,23.6194265366,60,0.036,2.61e-09,721000000.0,205.0,25
119.0,23.6377826691,60,0.036,2.61e-09,721000000.0,205.0,25
120.0,23.6561388016,60,0.036,2.61e-09,721000000.0,205.0,25
121.0,23.6744949341,60,0.036,2.61e-09,721000000.0,205.0,25
122.0,23.6928510666,60,0.036,2.61e-09,721000000.0,205.0,25
123.0,23.7112071991,60,0.036,2.61e-09,721000000.0,205.0,25
124.0,23.7295633316,60,0.036,2.61e-09,721000000.0,205.0,25
125.0,23.7479194641,60,0.036,2.61e-09,721000000.0,205.0,25
126.0,23.7662755966,60,0.036,2.61e-09,721000000.0,205.0,25
127.0,23.7846317291,60,0.036,2.61e-09,721000000.0,205.0,25
128.0,23.80288562772,60,0.036,2.61e-09,721000000.0,205.0,25
129.0,23.82113952634,60,0.036,2.61e-09,721000000.0,205.0,25
130.0,23.83939342496,60,0.036,2.61e-09,721000000.0,205.0,25
131.0,23.85764732358,60,0.036,2.61e-09,721000000.0,205.0,25
132.0,23.8759012222,60,0.036,2.61e-09,721000000.0,205.0,25
133.0,23.89415512082,60,0.036,2.61e-09,721000000.0,205.0,25
134.0,23.91240901944,60,0.036,2.61e-09,721000000.0,205.0,25
135.0,23.93066291806,60,0.036,2.61e-09,721000000.0,205.0,25
136.0,23.94891681668,60,0.036,2.61e-09,721000000.0,205.0,25
137.0,23.9671707153,60,0.036,2.61e-09,721000000.0,205.0,25
138.0,23.98533020017,60,0.036,2.61e-09,721000000.0,205.0,25
139.0,24.00348968504,60,0.036,2.61e-09,721000000.0,205.0,25
140.0,24.02164916991,60,0.036,2.61e-09,721000000.0,205.0,25
141.0,24.03980865478,60,0.036,2.61e-09,721000000.0,205.0,25
142.0,24.05796813965,60,0.036,2.61e-09,721000000.0,205.0,25
143.0,24.07612762452,60,0.036,2.61e-09,721000000.0,205.0,25
144.0,24.09428710939,60,0.036,2.61e-09,721000000.0,205.0,25
145.0,24.11244659426,60,0.036,2.61e-09,721000000.0,205.0,25
146.0,24.13060607913,60,0.036,2.61e-09,721000000.0,205.0,25
147.0,24.148765564,60,0.036,2.61e-09,721000000.0,205.0,25
148.0,24.16683330539,60,0.036,2.61e-09,721000000.0,205.0,25
149.0,24.18490104678,60,0.036,2.61e-09,721000000.0,205.0,25
150.0,24.20296878817,60,0.036,2.61e-09,721000000.0,205.0,25
151.0,24.22103652956,60,0.036,2.61e-09,721000000.0,205.0,25
152.0,24.23910427095,60,0.036,2.61e-09,721000000.0,205.0,25
153.0,24.25717201234,60,0.036,2.61e-09,721000000.0,205.0,25
154.0,24.27523975373,60,0.036,2.61e-09,721000000.0,205.0,25
155.0,24.29330749512,60,0.036,2.61e-09,721000000.0,205.0,25
156.0,24.31137523651,60,0.036,2.61e-09,721000000.0,205.0,25
157.0,24.3294429779,60,0.036,2.61e-09,721000000.0,205.0,25
158.0,24.3474199295,60,0.036,2.61e-09,721000000.0,205.0,25
159.0,24.3653968811,60,0.036,2.61e-09,721000000.0,205.0,25
160.0,24.3833738327,60,0.036,2.61e-09,721000000.0,205.0,25
161.0,24.4013507843,60,0.036,2.61e-09,721000000.0,205.0,25
162.0,24.4193277359,60,0.036,2.61e-09,721000000.0,205.0,25
163.0,24.4373046875,60,0.036,2.61e-09,721000000.0,205.0,25
164.0,24.4552816391,60,0.036,2.61e-09,721000000.0,205.0,25
165.0,24.4732585907,60,0.036,2.61e-09,721000000.0,205.0,25
166.0,24.4912355423,60,0.036,2.61e-09,721000000.0,205.0,25
167.0,24.5092124939,60,0.036,2.61e-09,721000000.0,205.0,25
168.0,24.52709922791,60,0.036,2.61e-09,721000000.0,205.0,25
169.0,24.54498596192,60,0.036,2.61e-09,721000000.0,205.0,25
170.0,24.56287269593,60,0.036,2.61e-09,721000000.0,205.0,25
171.0,24.58075942994,60,0.036,2.61e-09,721000000.0,205.0,25
172.0,24.59864616395,60,0.036,2.61e-09,721000000.0,205.0,25
173.0,24.61653289796,60,0.036,2.61e-09,721000000.0,205.0,25
174.0,24.63441963197,60,0.036,2.61e-09,721000000.0,205.0,25
175.0,24.65230636598,60,0.036,2.61e-09,721000000.0,205.0,25
176.0,24.67019309999,60,0.036,2.61e-09,721000000.0,205.0,25
177.0,24.688079834,60,0.036,2.61e-09,721000000.0,205.0,25
178.0,24.70587692262,60,0.036,2.61e-09,721000000.0,205.0,25
179.0,24.72367401124,60,0.036,2.61e-09,721000000.0,205.0,25
180.0,24.74147109986,60,0.036,2.61e-09,721000000.0,205.0,25
181.0,24.75926818848,60,0.036,2.61e-09,721000000.0,205.0,25
182.0,24.7770652771,60,0.036,2.61e-09,721000000.0,205.0,25
183.0,24.79486236572,60,0.036,2.61e-09,721000000.0,205.0,25
184.0,24.81265945434,60,0.036,2.61e-09,721000000.0,205.0,25
185.0,24.83045654296,60,0.036,2.61e-09,721000000.0,205.0,25
186.0,24.84825363158,60,0.036,2.61e-09,721000000.0,205.0,25
187.0,24.8660507202,60,0.036,2.61e-09,721000000.0,205.0,25
188.0,24.88375816344,60,0.036,2.61e-09,721000000.0,205.0,25
189.0,24.90146560668,60,0.036,2.61e-09,721000000.0,205.0,25
190.0,24.91917304992,60,0.036,2.61e-09,721000000.0,205.0,25
191.0,24.93688049316,60,0.036,2.61e-09,721000000.0,205.0,25
192.0,24.9545879364,60,0.036,2.61e-09,721000000.0,205.0,25
193.0,24.97229537964,60,0.036,2.61e-09,721000000.0,205.0,25
194.0,24.99000282288,60,0.036,2.61e-09,721000000.0,205.0,25
195.0,25.00771026612,60,0.036,2.61e-09,721000000.0,205.0,25
196.0,25.02541770936,60,0.036,2.61e-09,721000000.0,205.0,25
197.0,25.0431251526,60,0.036,2.61e-09,721000000.0,205.0,25
198.0,25.06074371339,60,0.036,2.61e-09,721000000.0,205.0,25
199.0,25.07836227418,60,0.036,2.61e-09,721000000.0,205.0,25
200.0,25.09598083497,60,0.036,2.61e-09,721000000.0,205.0,25
201.0,25.11359939576,60,0.036,2.61e-09,721000000.0,205.0,25
202.0,25.13121795655,60,0.036,2.61e-09,721000000.0,205.0,25
203.0,25.14883651734,60,0.036,2.61e-09,721000000.0,205.0,25
204.0,25.16645507813,60,0.036,2.61e-09,721000000.0,205.0,25
205.0,25.18407363892,60,0.036,2.61e-09,721000000.0,205.0,25
206.0,25.20169219971,60,0.036,2.61e-09,721000000.0,205.0,25
207.0,25.2193107605,60,0.036,2.61e-09,721000000.0,205.0,25
208.0,25.23684062958,60,0.036,2.61e-09,721000000.0,205.0,25
209.0,25.25437049866,60,0.036,2.61e-09,721000000.0,205.0,25
210.0,25.27190036774,60,0.036,2.61e-09,721000000.0,205.0,25
211.0,25.28943023682,60,0.036,2.61e-09,721000000.0,205.0,25
212.0,25.3069601059,60,0.036,2.61e-09,721000000.0,205.0,25
213.0,25.32448997498,60,0.036,2.61e-09,721000000.0,205.0,25
214.0,25.34201984406,60,0.036,2.61e-09,721000000.0,205.0,25
215.0,25.35954971314,60,0.036,2.61e-09,721000000.0,205.0,25
216.0,25.37707958222,60,0.036,2.61e-09,721000000.0,205.0,25
217.0,25.3946094513,60,0.036,2.61e-09,721000000.0,205.0,25
218.0,25.41205101014,60,0.036,2.61e-09,721000000.0,205.0,25
219.0,25.42949256898,60,0.036,2.61e-09,721000000.0,205.0,25
220.0,25.44693412782,60,0.036,2.61e-09,721000000.0,205.0,25
221.0,25.46437568666,60,0.036,2.61e-09,721000000.0,205.0,25
222.0,25.4818172455,60,0.036,2.61e-09,721000000.0,205.0,25
223.0,25.49925880434,60,0.036,2.61e-09,721000000.0,205.0,25
224.0,25.51670036318,60,0.036,2.61e-09,721000000.0,205.0,25
225.0,25.53414192202,60,0.036,2.61e-09,721000000.0,205.0,25
226.0,25.55158348086,60,0.036,2.61e-09,721000000.0,205.0,25
227.0,25.5690250397,60,0.036,2.61e-09,721000000.0,205.0,25
228.0,25.5863788605,60,0.036,2.61e-09,721000000.0,205.0,25
229.0,25.6037326813,60,0.036,2.61e-09,721000000.0,205.0,25
230.0,25.6210865021,60,0.036,2.61e-09,721000000.0,205.0,25
231.0,25.6384403229,60,0.036,2.61e-09,721000000.0,205.0,25
232.0,25.6557941437,60,0.036,2.61e-09,721000000.0,205.0,25
233.0,25.6731479645,60,0.036,2.61e-09,721000000.0,205.0,25
234.0,25.6905017853,60,0.036,2.61e-09,721000000.0,205.0,25
235.0,25.7078556061,60,0.036,2.61e-09,721000000.0,205.0,25
236.0,25.7252094269,60,0.036,2.61e-09,721000000.0,205.0,25
237.0,25.7425632477,60,0.036,2.61e-09,721000000.0,205.0,25
238.0,25.75982971193,60,0.036,2.61e-09,721000000.0,205.0,25
239.0,25.77709617616,60,0.036,2.61e-09,721000000.0,205.0,25
240.0,25.79436264039,60,0.036,2.61e-09,721000000.0,205.0,25
241.0,25.81162910462,60,0.036,2.61e-09,721000000.0,205.0,25
242.0,25.82889556885,60,0.036,2.61e-09,721000000.0,205.0,25
243.0,25.84616203308,60,0.036,2.61e-09,721000000.0,205.0,25
244.0,25.86342849731,60,0.036,2.61e-09,721000000.0,205.0,25
245.0,25.88069496154,60,0.036,2.61e-09,721000000.0,205.0,25
246.0,25.89796142577,60,0.036,2.61e-09,721000000.0,205.0,25
247.0,25.91522789,60,0.036,2.61e-09,721000000.0,205.0,25
248.0,25.9324071884,60,0.036,2.61e-09,721000000.0,205.0,25
249.0,25.9495864868,60,0.036,2.61e-09,721000000.0,205.0,25
250.0,25.9667657852,60,0.036,2.61e-09,721000000.0,205.0,25
251.0,25.9839450836,60,0.036,2.61e-09,721000000.0,205.0,25
252.0,26.001124382,60,0.036,2.61e-09,721000000.0,205.0,25
253.0,26.0183036804,60,0.036,2.61e-09,721000000.0,205.0,25
254.0,26.0354829788,60,0.036,2.61e-09,721000000.0,205.0,25
255.0,26.0526622772,60,0.036,2.61e-09,721000000.0,205.0,25
256.0,26.0698415756,60,0.036,2.61e-09,721000000.0,205.0,25
257.0,26.087020874,60,0.036,2.61e-09,721000000.0,205.0,25
258.0,26.10411376951,60,0.036,2.61e-09,721000000.0,205.0,25
259.0,26.12120666502,60,0.036,2.61e-09,721000000.0,205.0,25
260.0,26.13829956053,60,0.036,2.61e-09,721000000.0,205.0,25
261.0,26.15539245604,60,0.036,2.61e-09,721000000.0,205.0,25
262.0,26.17248535155,60,0.036,2.61e-09,721000000.0,205.0,25
263.0,26.18957824706,60,0.036,2.61e-09,721000000.0,205.0,25
264.0,26.20667114257,60,0.036,2.61e-09,721000000.0,205.0,25
265.0,26.22376403808,60,0.036,2.61e-09,721000000.0,205.0,25
266.0,26.24085693359,60,0.036,2.61e-09,721000000.0,205.0,25
267.0,26.2579498291,60,0.036,2.61e-09,721000000.0,205.0,25
268.0,26.27495651245,60,0.036,2.61e-09,721000000.0,205.0,25
269.0,26.2919631958,60,0.036,2.61e-09,721000000.0,205.0,25
270.0,26.30896987915,60,0.036,2.61e-09,721000000.0,205.0,25
271.0,26.3259765625,60,0.036,2.61e-09,721000000.0,205.0,25
272.0,26.34298324585,60,0.036,2.61e-09,721000000.0,205.0,25
273.0,26.3599899292,60,0.036,2.61e-09,721000000.0,205.0,25
274.0,26.37699661255,60,0.036,2.61e-09,721000000.0,205.0,25
275.0,26.3940032959,60,0.036,2.61e-09,721000000.0,205.0,25
276.0,26.41100997925,60,0.036,2.61e-09,721000000.0,205.0,25
277.0,26.4280166626,60,0.036,2.61e-09,721000000.0,205.0,25
278.0,26.44493751526,60,0.036,2.61e-09,721000000.0,205.0,25
279.0,26.46185836792,60,0.036,2.61e-09,721000000.0,205.0,25
280.0,26.47877922058,60,0.036,2.61e-09,721000000.0,205.0,25
281.0,26.49570007324,60,0.036,2.61e-09,721000000.0,205.0,25
282.0,26.5126209259,60,0.036,2.61e-09,721000000.0,205.0,25
283.0,26.52954177856,60,0.036,2.61e-09,721000000.0,205.0,25
284.0,26.54646263122,60,0.036,2.61e-09,721000000.0,205.0,25
285.0,26.56338348388,60,0.036,2.61e-09,721000000.0,205.0,25
286.0,26.58030433654,60,0.036,2.61e-09,721000000.0,205.0,25
287.0,26.5972251892,60,0.036,2.61e-09,721000000.0,205.0,25
288.0,26.61406097411,60,0.036,2.61e-09,721000000.0,205.0,25
289.0,26.63089675902,60,0.036,2.61e-09,721000000.0,205.0,25
290.0,26.64773254393,60,0.036,2.61e-09,721000000.0,205.0,25
291.0,26.66456832884,60,0.036,2.61e-09,721000000.0,205.0,25
292.0,26.68140411375,60,0.036,2.61e-09,721000000.0,205.0,25
293.0,26.69823989866,60,0.036,2.61e-09,721000000.0,205.0,25
294.0,26.71507568357,60,0.036,2.61e-09,721000000.0,205.0,25
295.0,26.73191146848,60,0.036,2.61e-09,721000000.0,205.0,25
296.0,26.74874725339,60,0.036,2.61e-09,721000000.0,205.0,25
297.0,26.7655830383,60,0.036,2.61e-09,721000000.0,205.0,25
298.0,26.78233375547,60,0.036,2.61e-09,721000000.0,205.0,25
299.0,26.79908447264,60,0.036,2.61e-09,721000000.0,205.0,25
300.0,26.81583518981,60,0.036,2.61e-09,721000000.0,205.0,25
301.0,26.83258590698,60,0.036,2.61e-09,721000000.0,205.0,25
302.0,26.84933662415,60,0.036,2.61e-09,721000000.0,205.0,25
303.0,26.86608734132,60,0.036,2.61e-09,721000000.0,205.0,25
304.0,26.88283805849,60,0.036,2.61e-09,721000000.0,205.0,25
305.0,26.89958877566,60,0.036,2.61e-09,721000000.0,205.0,25
306.0,26.91633949283,60,0.036,2.61e-09,721000000.0,205.0,25
307.0,26.93309021,60,0.036,2.61e-09,721000000.0,205.0,25
308.0,26.94975681308,60,0.036,2.61e-09,721000000.0,205.0,25
309.0,26.96642341616,60,0.036,2.61e-09,721000000.0,205.0,25
310.0,26.98309001924,60,0.036,2.61e-09,721000000.0,205.0,25
311.0,26.99975662232,60,0.036,2.61e-09,721000000.0,205.0,25
312.0,27.0164232254,60,0.036,2.61e-09,721000000.0,205.0,25
313.0,27.03308982848,60,0.036,2.61e-09,721000000.0,205.0,25
314.0,27.04975643156,60,0.036,2.61e-09,721000000.0,205.0,25
315.0,27.06642303464,60,0.036,2.61e-09,721000000.0,205.0,25
316.0,27.08308963772,60,0.036,2.61e-09,721000000.0,205.0,25
317.0,27.0997562408,60,0.036,2.61e-09,721000000.0,205.0,25
318.0,27.11633853908,60,0.036,2.61e-09,721000000.0,205.0,25
319.0,27.13292083736,60,0.036,2.61e-09,721000000.0,205.0,25
320.0,27.14950313564,60,0.036,2.61e-09,721000000.0,205.0,25
321.0,27.16608543392,60,0.036,2.61e-09,721000000.0,205.0,25
322.0,27.1826677322,60,0.036,2.61e-09,721000000.0,205.0,25
323.0,27.19925003048,60,0.036,2.61e-09,721000000.0,205.0,25
324.0,27.21583232876,60,0.036,2.61e-09,721000000.0,205.0,25
325.0,27.23241462704,60,0.036,2.61e-09,721000000.0,205.0,25
326.0,27.24899692532,60,0.036,2.61e-09,721000000.0,205.0,25
327.0,27.2655792236,60,0.036,2.61e-09,721000000.0,205.0,25
328.0,27.28207817075,60,0.036,2.61e-09,721000000.0,205.0,25
329.0,27.2985771179,60,0.036,2.61e-09,721000000.0,205.0,25
330.0,27.31507606505,60,0.036,2.61e-09,721000000.0,205.0,25
