time,T_int,T_ext_1,Film_Coef,Density,Specific_Heat,Thermal_Conductivity,Radius
1.0,21.9823513031,22.88,0.036,7.97e-09,486000000.0,52.0,15
2.0,21.9675350189,23.76,0.036,7.97e-09,486000000.0,52.0,15
3.0,21.9550113678,24.64,0.036,7.97e-09,486000000.0,52.0,15
4.0,21.94577884675,25.52,0.036,7.97e-09,486000000.0,52.0,15
5.0,21.9365463257,26.4,0.036,7.97e-09,486000000.0,52.0,15
6.0,21.93176937105,27.28,0.036,7.97e-09,486000000.0,52.0,15
7.0,21.9269924164,28.16,0.036,7.97e-09,486000000.0,52.0,15
8.0,21.92221546175,29.04,0.036,7.97e-09,486000000.0,52.0,15
9.0,21.9174385071,29.92,0.036,7.97e-09,486000000.0,52.0,15
10.0,21.9192028045875,30.8,0.036,7.97e-09,486000000.0,52.0,15
11.0,21.920967102075,31.68,0.036,7.97e-09,486000000.0,52.0,15
12.0,21.9227313995625,32.56,0.036,7.97e-09,486000000.0,52.0,15
13.0,21.92449569705,33.44,0.036,7.97e-09,486000000.0,52.0,15
14.0,21.9262599945375,34.32,0.036,7.97e-09,486000000.0,52.0,15
15.0,21.928024292025,35.2,0.036,7.97e-09,486000000.0,52.0,15
16.0,21.9297885895125,36.08,0.036,7.97e-09,486000000.0,52.0,15
17.0,21.931552887,36.96,0.036,7.97e-09,486000000.0,52.0,15
18.0,21.9404333115,37.84,0.036,7.97e-09,486000000.0,52.0,15
19.0,21.949313736,38.72,0.036,7.97e-09,486000000.0,52.0,15
20.0,21.9581941605,39.6,0.036,7.97e-09,486000000.0,52.0,15
21.0,21.967074585,40.48,0.036,7.97e-09,486000000.0,52.0,15
22.0,21.9759550095,41.36,0.036,7.97e-09,486000000.0,52.0,15
23.0,21.984835434,42.24,0.036,7.97e-09,486000000.0,52.0,15
24.0,21.9937158585,43.12,0.036,7.97e-09,486000000.0,52.0,15
25.0,22.002596283,44.0,0.036,7.97e-09,486000000.0,52.0,15
26.0,22.0114767075,44.88,0.036,7.97e-09,486000000.0,52.0,15
27.0,22.020357132,45.76,0.036,7.97e-09,486000000.0,52.0,15
28.0,22.03597354893,46.64,0.036,7.97e-09,486000000.0,52.0,15
29.0,22.05158996586,47.52,0.036,7.97e-09,486000000.0,52.0,15
30.0,22.06720638279,48.4,0.036,7.97e-09,486000000.0,52.0,15
31.0,22.08282279972,49.28,0.036,7.97e-09,486000000.0,52.0,15
32.0,22.09843921665,50.16,0.036,7.97e-09,486000000.0,52.0,15
33.0,22.11405563358,51.04,0.036,7.97e-09,486000000.0,52.0,15
34.0,22.12967205051,51.92,0.036,7.97e-09,486000000.0,52.0,15
35.0,22.14528846744,52.8,0.036,7.97e-09,486000000.0,52.0,15
36.0,22.16090488437,53.68,0.036,7.97e-09,486000000.0,52.0,15
37.0,22.1765213013,54.56,0.036,7.97e-09,486000000.0,52.0,15
38.0,22.198708725,55.44,0.036,7.97e-09,486000000.0,52.0,15
39.0,22.2208961487,56.32,0.036,7.97e-09,486000000.0,52.0,15
40.0,22.2430835724,57.2,0.036,7.97e-09,486000000.0,52.0,15
41.0,22.2652709961,58.08,0.036,7.97e-09,486000000.0,52.0,15
42.0,22.2874584198,58.96,0.036,7.97e-09,486000000.0,52.0,15
43.0,22.3096458435,59.84,0.036,7.97e-09,486000000.0,52.0,15
44.0,22.3318332672,60.72,0.036,7.97e-09,486000000.0,52.0,15
45.0,22.3540206909,61.6,0.036,7.97e-09,486000000.0,52.0,15
46.0,22.3762081146,62.48,0.036,7.97e-09,486000000.0,52.0,15
47.0,22.3983955383,63.36,0.036,7.97e-09,486000000.0,52.0,15
48.0,22.42082023618,64.24,0.036,7.97e-09,486000000.0,52.0,15
49.0,22.44324493406,65.12,0.036,7.97e-09,486000000.0,52.0,15
50.0,22.46566963194,66.0,0.036,7.97e-09,486000000.0,52.0,15
51.0,22.48809432982,62.94,0.036,7.97e-09,486000000.0,52.0,15
52.0,22.5105190277,62.88,0.036,7.97e-09,486000000.0,52.0,15
53.0,22.53294372558,62.82,0.036,7.97e-09,486000000.0,52.0,15
54.0,22.55536842346,62.76,0.036,7.97e-09,486000000.0,52.0,15
55.0,22.57779312134,62.7,0.036,7.97e-09,486000000.0,52.0,15
56.0,22.60021781922,62.64,0.036,7.97e-09,486000000.0,52.0,15
57.0,22.6226425171,62.58,0.036,7.97e-09,486000000.0,52.0,15
58.0,22.64346179963,62.52,0.036,7.97e-09,486000000.0,52.0,15
59.0,22.66428108216,62.46,0.036,7.97e-09,486000000.0,52.0,15
60.0,22.68510036469,62.4,0.036,7.97e-09,486000000.0,52.0,15
61.0,22.70591964722,62.34,0.036,7.97e-09,486000000.0,52.0,15
62.0,22.72673892975,62.28,0.036,7.97e-09,486000000.0,52.0,15
63.0,22.74755821228,62.22,0.036,7.97e-09,486000000.0,52.0,15
64.0,22.76837749481,62.16,0.036,7.97e-09,486000000.0,52.0,15
65.0,22.78919677734,62.1,0.036,7.97e-09,486000000.0,52.0,15
66.0,22.81001605987,62.04,0.036,7.97e-09,486000000.0,52.0,15
67.0,22.8308353424,61.98,0.036,7.97e-09,486000000.0,52.0,15
68.0,22.8506696701,61.92,0.036,7.97e-09,486000000.0,52.0,15
69.0,22.8705039978,61.86,0.036,7.97e-09,486000000.0,52.0,15
70.0,22.8903383255,61.8,0.036,7.97e-09,486000000.0,52.0,15
71.0,22.9101726532,61.74,0.036,7.97e-09,486000000.0,52.0,15
72.0,22.9300069809,61.68,0.036,7.97e-09,486000000.0,52.0,15
73.0,22.9498413086,61.62,0.036,7.97e-09,486000000.0,52.0,15
74.0,22.9696756363,61.56,0.036,7.97e-09,486000000.0,52.0,15
75.0,22.989509964,61.5,0.036,7.97e-09,486000000.0,52.0,15
76.0,23.0093442917,61.44,0.036,7.97e-09,486000000.0,52.0,15
77.0,23.0291786194,61.38,0.036,7.97e-09,486000000.0,52.0,15
78.0,23.04822711946,61.32,0.036,7.97e-09,486000000.0,52.0,15
79.0,23.06727561952,61.26,0.036,7.97e-09,486000000.0,52.0,15
80.0,23.08632411958,61.2,0.036,7.97e-09,486000000.0,52.0,15
81.0,23.10537261964,61.14,0.036,7.97e-09,486000000.0,52.0,15
82.0,23.1244211197,61.08,0.036,7.97e-09,486000000.0,52.0,15
83.0,23.14346961976,61.02,0.036,7.97e-09,486000000.0,52.0,15
84.0,23.16251811982,60.96,0.036,7.97e-09,486000000.0,52.0,15
85.0,23.18156661988,60.9,0.036,7.97e-09,486000000.0,52.0,15
86.0,23.20061511994,60.84,0.036,7.97e-09,486000000.0,52.0,15
87.0,23.21966362,60.78,0.036,7.97e-09,486000000.0,52.0,15
88.0,23.23800086976,60.72,0.036,7.97e-09,486000000.0,52.0,15
89.0,23.25633811952,60.66,0.036,7.97e-09,486000000.0,52.0,15
90.0,23.27467536928,60.6,0.036,7.97e-09,486000000.0,52.0,15
91.0,23.29301261904,60.54,0.036,7.97e-09,486000000.0,52.0,15
92.0,23.3113498688,60.48,0.036,7.97e-09,486000000.0,52.0,15
93.0,23.32968711856,60.42,0.036,7.97e-09,486000000.0,52.0,15
94.0,23.34802436832,60.36,0.036,7.97e-09,486000000.0,52.0,15
95.0,23.36636161808,60.3,0.036,7.97e-09,486000000.0,52.0,15
96.0,23.38469886784,60.24,0.036,7.97e-09,486000000.0,52.0,15
97.0,23.4030361176,60.18,0.036,7.97e-09,486000000.0,52.0,15
98.0,23.42121295933,60.12,0.036,7.97e-09,486000000.0,52.0,15
99.0,23.43938980106,60.06,0.036,7.97e-09,486000000.0,52.0,15
100.0,23.45756664279,60.0,0.036,7.97e-09,486000000.0,52.0,15
101.0,23.47574348452,60,0.036,7.97e-09,486000000.0,52.0,15
102.0,23.49392032625,60,0.036,7.97e-09,486000000.0,52.0,15
103.0,23.51209716798,60,0.036,7.97e-09,486000000.0,52.0,15
104.0,23.53027400971,60,0.036,7.97e-09,486000000.0,52.0,15
105.0,23.54845085144,60,0.036,7.97e-09,486000000.0,52.0,15
106.0,23.56662769317,60,0.036,7.97e-09,486000000.0,52.0,15
107.0,23.5848045349,60,0.036,7.97e-09,486000000.0,52.0,15
108.0,23.60298290252,60,0.036,7.97e-09,486000000.0,52.0,15
109.0,23.62116127014,60,0.036,7.97e-09,486000000.0,52.0,15
110.0,23.63933963776,60,0.036,7.97e-09,486000000.0,52.0,15
111.0,23.65751800538,60,0.036,7.97e-09,486000000.0,52.0,15
112.0,23.675696373,60,0.036,7.97e-09,486000000.0,52.0,15
113.0,23.69387474062,60,0.036,7.97e-09,486000000.0,52.0,15
114.0,23.71205310824,60,0.036,7.97e-09,486000000.0,52.0,15
115.0,23.73023147586,60,0.036,7.97e-09,486000000.0,52.0,15
116.0,23.74840984348,60,0.036,7.97e-09,486000000.0,52.0,15
117.0,23.7665882111,60,0.036,7.97e-09,486000000.0,52.0,15
118.0,23.78471736912,60,0.036,7.97e-09,486000000.0,52.0,15
119.0,23.80284652714,60,0.036,7.97e-09,486000000.0,52.0,15
120.0,23.82097568516,60,0.036,7.97e-09,486000000.0,52.0,15
121.0,23.83910484318,60,0.036,7.97e-09,486000000.0,52.0,15
122.0,23.8572340012,60,0.036,7.97e-09,486000000.0,52.0,15
123.0,23.87536315922,60,0.036,7.97e-09,486000000.0,52.0,15
124.0,23.89349231724,60,0.036,7.97e-09,486000000.0,52.0,15
125.0,23.91162147526,60,0.036,7.97e-09,486000000.0,52.0,15
126.0,23.92975063328,60,0.036,7.97e-09,486000000.0,52.0,15
127.0,23.9478797913,60,0.036,7.97e-09,486000000.0,52.0,15
128.0,23.96594219211,60,0.036,7.97e-09,486000000.0,52.0,15
129.0,23.98400459292,60,0.036,7.97e-09,486000000.0,52.0,15
130.0,24.00206699373,60,0.036,7.97e-09,486000000.0,52.0,15
131.0,24.02012939454,60,0.036,7.97e-09,486000000.0,52.0,15
132.0,24.03819179535,60,0.036,7.97e-09,486000000.0,52.0,15
133.0,24.05625419616,60,0.036,7.97e-09,486000000.0,52.0,15
134.0,24.07431659697,60,0.036,7.97e-09,486000000.0,52.0,15
135.0,24.09237899778,60,0.036,7.97e-09,486000000.0,52.0,15
136.0,24.11044139859,60,0.036,7.97e-09,486000000.0,52.0,15
137.0,24.1285037994,60,0.036,7.97e-09,486000000.0,52.0,15
138.0,24.14649181363,60,0.036,7.97e-09,486000000.0,52.0,15
139.0,24.16447982786,60,0.036,7.97e-09,486000000.0,52.0,15
140.0,24.18246784209,60,0.036,7.97e-09,486000000.0,52.0,15
141.0,24.20045585632,60,0.036,7.97e-09,486000000.0,52.0,15
142.0,24.21844387055,60,0.036,7.97e-09,486000000.0,52.0,15
143.0,24.23643188478,60,0.036,7.97e-09,486000000.0,52.0,15
144.0,24.25441989901,60,0.036,7.97e-09,486000000.0,52.0,15
145.0,24.27240791324,60,0.036,7.97e-09,486000000.0,52.0,15
146.0,24.29039592747,60,0.036,7.97e-09,486000000.0,52.0,15
147.0,24.3083839417,60,0.036,7.97e-09,486000000.0,52.0,15
148.0,24.32629261021,60,0.036,7.97e-09,486000000.0,52.0,15
149.0,24.34420127872,60,0.036,7.97e-09,486000000.0,52.0,15
150.0,24.36210994723,60,0.036,7.97e-09,486000000.0,52.0,15
151.0,24.38001861574,60,0.036,7.97e-09,486000000.0,52.0,15
152.0,24.39792728425,60,0.036,7.97e-09,486000000.0,52.0,15
153.0,24.41583595276,60,0.036,7.97e-09,486000000.0,52.0,15
154.0,24.43374462127,60,0.036,7.97e-09,486000000.0,52.0,15
155.0,24.45165328978,60,0.036,7.97e-09,486000000.0,52.0,15
156.0,24.46956195829,60,0.036,7.97e-09,486000000.0,52.0,15
157.0,24.4874706268,60,0.036,7.97e-09,486000000.0,52.0,15
158.0,24.50529785153,60,0.036,7.97e-09,486000000.0,52.0,15
159.0,24.52312507626,60,0.036,7.97e-09,486000000.0,52.0,15
160.0,24.54095230099,60,0.036,7.97e-09,486000000.0,52.0,15
161.0,24.55877952572,60,0.036,7.97e-09,486000000.0,52.0,15
162.0,24.57660675045,60,0.036,7.97e-09,486000000.0,52.0,15
163.0,24.59443397518,60,0.036,7.97e-09,486000000.0,52.0,15
164.0,24.61226119991,60,0.036,7.97e-09,486000000.0,52.0,15
165.0,24.63008842464,60,0.036,7.97e-09,486000000.0,52.0,15
166.0,24.64791564937,60,0.036,7.97e-09,486000000.0,52.0,15
167.0,24.6657428741,60,0.036,7.97e-09,486000000.0,52.0,15
168.0,24.68348655697,60,0.036,7.97e-09,486000000.0,52.0,15
169.0,24.70123023984,60,0.036,7.97e-09,486000000.0,52.0,15
170.0,24.71897392271,60,0.036,7.97e-09,486000000.0,52.0,15
171.0,24.73671760558,60,0.036,7.97e-09,486000000.0,52.0,15
172.0,24.75446128845,60,0.036,7.97e-09,486000000.0,52.0,15
173.0,24.77220497132,60,0.036,7.97e-09,486000000.0,52.0,15
174.0,24.78994865419,60,0.036,7.97e-09,486000000.0,52.0,15
175.0,24.80769233706,60,0.036,7.97e-09,486000000.0,52.0,15
176.0,24.82543601993,60,0.036,7.97e-09,486000000.0,52.0,15
177.0,24.8431797028,60,0.036,7.97e-09,486000000.0,52.0,15
178.0,24.86083908085,60,0.036,7.97e-09,486000000.0,52.0,15
179.0,24.8784984589,60,0.036,7.97e-09,486000000.0,52.0,15
180.0,24.89615783695,60,0.036,7.97e-09,486000000.0,52.0,15
181.0,24.913817215,60,0.036,7.97e-09,486000000.0,52.0,15
182.0,24.93147659305,60,0.036,7.97e-09,486000000.0,52.0,15
183.0,24.9491359711,60,0.036,7.97e-09,486000000.0,52.0,15
184.0,24.96679534915,60,0.036,7.97e-09,486000000.0,52.0,15
185.0,24.9844547272,60,0.036,7.97e-09,486000000.0,52.0,15
186.0,25.00211410525,60,0.036,7.97e-09,486000000.0,52.0,15
187.0,25.0197734833,60,0.036,7.97e-09,486000000.0,52.0,15
188.0,25.0373477936,60,0.036,7.97e-09,486000000.0,52.0,15
189.0,25.0549221039,60,0.036,7.97e-09,486000000.0,52.0,15
190.0,25.0724964142,60,0.036,7.97e-09,486000000.0,52.0,15
191.0,25.0900707245,60,0.036,7.97e-09,486000000.0,52.0,15
192.0,25.1076450348,60,0.036,7.97e-09,486000000.0,52.0,15
193.0,25.1252193451,60,0.036,7.97e-09,486000000.0,52.0,15
194.0,25.1427936554,60,0.036,7.97e-09,486000000.0,52.0,15
195.0,25.1603679657,60,0.036,7.97e-09,486000000.0,52.0,15
196.0,25.177942276,60,0.036,7.97e-09,486000000.0,52.0,15
197.0,25.1955165863,60,0.036,7.97e-09,486000000.0,52.0,15
198.0,25.21300544738,60,0.036,7.97e-09,486000000.0,52.0,15
199.0,25.23049430846,60,0.036,7.97e-09,486000000.0,52.0,15
200.0,25.24798316954,60,0.036,7.97e-09,486000000.0,52.0,15
201.0,25.26547203062,60,0.036,7.97e-09,486000000.0,52.0,15
202.0,25.2829608917,60,0.036,7.97e-09,486000000.0,52.0,15
203.0,25.30044975278,60,0.036,7.97e-09,486000000.0,52.0,15
204.0,25.31793861386,60,0.036,7.97e-09,486000000.0,52.0,15
205.0,25.33542747494,60,0.036,7.97e-09,486000000.0,52.0,15
206.0,25.35291633602,60,0.036,7.97e-09,486000000.0,52.0,15
207.0,25.3704051971,60,0.036,7.97e-09,486000000.0,52.0,15
208.0,25.38780841823,60,0.036,7.97e-09,486000000.0,52.0,15
209.0,25.40521163936,60,0.036,7.97e-09,486000000.0,52.0,15
210.0,25.42261486049,60,0.036,7.97e-09,486000000.0,52.0,15
211.0,25.44001808162,60,0.036,7.97e-09,486000000.0,52.0,15
212.0,25.45742130275,60,0.036,7.97e-09,486000000.0,52.0,15
213.0,25.47482452388,60,0.036,7.97e-09,486000000.0,52.0,15
214.0,25.49222774501,60,0.036,7.97e-09,486000000.0,52.0,15
215.0,25.50963096614,60,0.036,7.97e-09,486000000.0,52.0,15
216.0,25.52703418727,60,0.036,7.97e-09,486000000.0,52.0,15
217.0,25.5444374084,60,0.036,7.97e-09,486000000.0,52.0,15
218.0,25.56175498958,60,0.036,7.97e-09,486000000.0,52.0,15
219.0,25.57907257076,60,0.036,7.97e-09,486000000.0,52.0,15
220.0,25.59639015194,60,0.036,7.97e-09,486000000.0,52.0,15
221.0,25.61370773312,60,0.036,7.97e-09,486000000.0,52.0,15
222.0,25.6310253143,60,0.036,7.97e-09,486000000.0,52.0,15
223.0,25.64834289548,60,0.036,7.97e-09,486000000.0,52.0,15
224.0,25.66566047666,60,0.036,7.97e-09,486000000.0,52.0,15
225.0,25.68297805784,60,0.036,7.97e-09,486000000.0,52.0,15
226.0,25.70029563902,60,0.036,7.97e-09,486000000.0,52.0,15
227.0,25.7176132202,60,0.036,7.97e-09,486000000.0,52.0,15
228.0,25.73484516142,60,0.036,7.97e-09,486000000.0,52.0,15
229.0,25.75207710264,60,0.036,7.97e-09,486000000.0,52.0,15
230.0,25.76930904386,60,0.036,7.97e-09,486000000.0,52.0,15
231.0,25.78654098508,60,0.036,7.97e-09,486000000.0,52.0,15
232.0,25.8037729263,60,0.036,7.97e-09,486000000.0,52.0,15
233.0,25.82100486752,60,0.036,7.97e-09,486000000.0,52.0,15
234.0,25.83823680874,60,0.036,7.97e-09,486000000.0,52.0,15
235.0,25.85546874996,60,0.036,7.97e-09,486000000.0,52.0,15
236.0,25.87270069118,60,0.036,7.97e-09,486000000.0,52.0,15
237.0,25.8899326324,60,0.036,7.97e-09,486000000.0,52.0,15
238.0,25.90707912441,60,0.036,7.97e-09,486000000.0,52.0,15
239.0,25.92422561642,60,0.036,7.97e-09,486000000.0,52.0,15
240.0,25.94137210843,60,0.036,7.97e-09,486000000.0,52.0,15
241.0,25.95851860044,60,0.036,7.97e-09,486000000.0,52.0,15
242.0,25.97566509245,60,0.036,7.97e-09,486000000.0,52.0,15
243.0,25.99281158446,60,0.036,7.97e-09,486000000.0,52.0,15
244.0,26.00995807647,60,0.036,7.97e-09,486000000.0,52.0,15
245.0,26.02710456848,60,0.036,7.97e-09,486000000.0,52.0,15
246.0,26.04425106049,60,0.036,7.97e-09,486000000.0,52.0,15
247.0,26.0613975525,60,0.036,7.97e-09,486000000.0,52.0,15
248.0,26.07845878602,60,0.036,7.97e-09,486000000.0,52.0,15
249.0,26.09552001954,60,0.036,7.97e-09,486000000.0,52.0,15
250.0,26.11258125306,60,0.036,7.97e-09,486000000.0,52.0,15
251.0,26.12964248658,60,0.036,7.97e-09,486000000.0,52.0,15
252.0,26.1467037201,60,0.036,7.97e-09,486000000.0,52.0,15
253.0,26.16376495362,60,0.036,7.97e-09,486000000.0,52.0,15
254.0,26.18082618714,60,0.036,7.97e-09,486000000.0,52.0,15
255.0,26.19788742066,60,0.036,7.97e-09,486000000.0,52.0,15
256.0,26.21494865418,60,0.036,7.97e-09,486000000.0,52.0,15
257.0,26.2320098877,60,0.036,7.97e-09,486000000.0,52.0,15
258.0,26.24898586274,60,0.036,7.97e-09,486000000.0,52.0,15
259.0,26.26596183778,60,0.036,7.97e-09,486000000.0,52.0,15
260.0,26.28293781282,60,0.036,7.97e-09,486000000.0,52.0,15
261.0,26.29991378786,60,0.036,7.97e-09,486000000.0,52.0,15
262.0,26.3168897629,60,0.036,7.97e-09,486000000.0,52.0,15
263.0,26.33386573794,60,0.036,7.97e-09,486000000.0,52.0,15
264.0,26.35084171298,60,0.036,7.97e-09,486000000.0,52.0,15
265.0,26.36781768802,60,0.036,7.97e-09,486000000.0,52.0,15
266.0,26.38479366306,60,0.036,7.97e-09,486000000.0,52.0,15
267.0,26.4017696381,60,0.036,7.97e-09,486000000.0,52.0,15
268.0,26.41866092685,60,0.036,7.97e-09,486000000.0,52.0,15
269.0,26.4355522156,60,0.036,7.97e-09,486000000.0,52.0,15
270.0,26.45244350435,60,0.036,7.97e-09,486000000.0,52.0,15
271.0,26.4693347931,60,0.036,7.97e-09,486000000.0,52.0,15
272.0,26.48622608185,60,0.036,7.97e-09,486000000.0,52.0,15
273.0,26.5031173706,60,0.036,7.97e-09,486000000.0,52.0,15
274.0,26.52000865935,60,0.036,7.97e-09,486000000.0,52.0,15
275.0,26.5368999481,60,0.036,7.97e-09,486000000.0,52.0,15
276.0,26.55379123685,60,0.036,7.97e-09,486000000.0,52.0,15
277.0,26.5706825256,60,0.036,7.97e-09,486000000.0,52.0,15
278.0,26.58748931882,60,0.036,7.97e-09,486000000.0,52.0,15
279.0,26.60429611204,60,0.036,7.97e-09,486000000.0,52.0,15
280.0,26.62110290526,60,0.036,7.97e-09,486000000.0,52.0,15
281.0,26.63790969848,60,0.036,7.97e-09,486000000.0,52.0,15
282.0,26.6547164917,60,0.036,7.97e-09,486000000.0,52.0,15
283.0,26.67152328492,60,0.036,7.97e-09,486000000.0,52.0,15
284.0,26.68833007814,60,0.036,7.97e-09,486000000.0,52.0,15
285.0,26.70513687136,60,0.036,7.97e-09,486000000.0,52.0,15
286.0,26.72194366458,60,0.036,7.97e-09,486000000.0,52.0,15
287.0,26.7387504578,60,0.036,7.97e-09,486000000.0,52.0,15
288.0,26.7554729462,60,0.036,7.97e-09,486000000.0,52.0,15
289.0,26.7721954346,60,0.036,7.97e-09,486000000.0,52.0,15
290.0,26.788917923,60,0.036,7.97e-09,486000000.0,52.0,15
291.0,26.8056404114,60,0.036,7.97e-09,486000000.0,52.0,15
292.0,26.8223628998,60,0.036,7.97e-09,486000000.0,52.0,15
293.0,26.8390853882,60,0.036,7.97e-09,486000000.0,52.0,15
294.0,26.8558078766,60,0.036,7.97e-09,486000000.0,52.0,15
295.0,26.872530365,60,0.036,7.97e-09,486000000.0,52.0,15
296.0,26.8892528534,60,0.036,7.97e-09,486000000.0,52.0,15
297.0,26.9059753418,60,0.036,7.97e-09,486000000.0,52.0,15
298.0,26.92261428833,60,0.036,7.97e-09,486000000.0,52.0,15
299.0,26.93925323486,60,0.036,7.97e-09,486000000.0,52.0,15
300.0,26.95589218139,60,0.036,7.97e-09,486000000.0,52.0,15
301.0,26.97253112792,60,0.036,7.97e-09,486000000.0,52.0,15
302.0,26.98917007445,60,0.036,7.97e-09,486000000.0,52.0,15
303.0,27.00580902098,60,0.036,7.97e-09,486000000.0,52.0,15
304.0,27.02244796751,60,0.036,7.97e-09,486000000.0,52.0,15
305.0,27.03908691404,60,0.036,7.97e-09,486000000.0,52.0,15
306.0,27.05572586057,60,0.036,7.97e-09,486000000.0,52.0,15
307.0,27.0723648071,60,0.036,7.97e-09,486000000.0,52.0,15
308.0,27.08892021177,60,0.036,7.97e-09,486000000.0,52.0,15
309.0,27.10547561644,60,0.036,7.97e-09,486000000.0,52.0,15
310.0,27.12203102111,60,0.036,7.97e-09,486000000.0,52.0,15
311.0,27.13858642578,60,0.036,7.97e-09,486000000.0,52.0,15
312.0,27.15514183045,60,0.036,7.97e-09,486000000.0,52.0,15
313.0,27.17169723512,60,0.036,7.97e-09,486000000.0,52.0,15
314.0,27.18825263979,60,0.036,7.97e-09,486000000.0,52.0,15
315.0,27.20480804446,60,0.036,7.97e-09,486000000.0,52.0,15
316.0,27.22136344913,60,0.036,7.97e-09,486000000.0,52.0,15
317.0,27.2379188538,60,0.036,7.97e-09,486000000.0,52.0,15
318.0,27.25439109806,60,0.036,7.97e-09,486000000.0,52.0,15
319.0,27.27086334232,60,0.036,7.97e-09,486000000.0,52.0,15
320.0,27.28733558658,60,0.036,7.97e-09,486000000.0,52.0,15
321.0,27.30380783084,60,0.036,7.97e-09,486000000.0,52.0,15
322.0,27.3202800751,60,0.036,7.97e-09,486000000.0,52.0,15
323.0,27.33675231936,60,0.036,7.97e-09,486000000.0,52.0,15
324.0,27.35322456362,60,0.036,7.97e-09,486000000.0,52.0,15
325.0,27.36969680788,60,0.036,7.97e-09,486000000.0,52.0,15
326.0,27.38616905214,60,0.036,7.97e-09,486000000.0,52.0,15
327.0,27.4026412964,60,0.036,7.97e-09,486000000.0,52.0,15
328.0,27.41903095247,60,0.036,7.97e-09,486000000.0,52.0,15
329.0,27.43542060854,60,0.036,7.97e-09,486000000.0,52.0,15
330.0,27.45181026461,60,0.036,7.97e-09,486000000.0,52.0,15
331.0,27.46819992068,60,0.036,7.97e-09,486000000.0,52.0,15
332.0,27.48458957675,60,0.036,7.97e-09,486000000.0,52.0,15
333.0,27.50097923282,60,0.036,7.97e-09,486000000.0,52.0,15
334.0,27.51736888889,60,0.036,7.97e-09,486000000.0,52.0,15
335.0,27.53375854496,60,0.036,7.97e-09,486000000.0,52.0,15
336.0,27.55014820103,60,0.036,7.97e-09,486000000.0,52.0,15
