time,T_int,T_ext_1,Film_Coef,Density,Specific_Heat,Thermal_Conductivity,Radius
1.0,21.9744644165,22.88,0.036,7.77e-09,236000000.0,92.0,15
2.0,21.9543170929,23.76,0.036,7.77e-09,236000000.0,92.0,15
3.0,21.9374866486,24.64,0.036,7.77e-09,236000000.0,92.0,15
4.0,21.9245901108,25.52,0.036,7.77e-09,236000000.0,92.0,15
5.0,21.911693573,26.4,0.036,7.77e-09,236000000.0,92.0,15
6.0,21.904217720025,27.28,0.036,7.77e-09,236000000.0,92.0,15
7.0,21.89674186705,28.16,0.036,7.77e-09,236000000.0,92.0,15
8.0,21.889266014075,29.04,0.036,7.77e-09,236000000.0,92.0,15
9.0,21.8817901611,29.92,0.036,7.77e-09,236000000.0,92.0,15
10.0,21.8834624290125,30.8,0.036,7.77e-09,236000000.0,92.0,15
11.0,21.885134696925,31.68,0.036,7.77e-09,236000000.0,92.0,15
12.0,21.8868069648375,32.56,0.036,7.77e-09,236000000.0,92.0,15
13.0,21.88847923275,33.44,0.036,7.77e-09,236000000.0,92.0,15
14.0,21.8901515006625,34.32,0.036,7.77e-09,236000000.0,92.0,15
15.0,21.891823768575,35.2,0.036,7.77e-09,236000000.0,92.0,15
16.0,21.8934960364875,36.08,0.036,7.77e-09,236000000.0,92.0,15
17.0,21.8951683044,36.96,0.036,7.77e-09,236000000.0,92.0,15
18.0,21.90777301784,37.84,0.036,7.77e-09,236000000.0,92.0,15
19.0,21.92037773128,38.72,0.036,7.77e-09,236000000.0,92.0,15
20.0,21.93298244472,39.6,0.036,7.77e-09,236000000.0,92.0,15
21.0,21.94558715816,40.48,0.036,7.77e-09,236000000.0,92.0,15
22.0,21.9581918716,41.36,0.036,7.77e-09,236000000.0,92.0,15
23.0,21.97079658504,42.24,0.036,7.77e-09,236000000.0,92.0,15
24.0,21.98340129848,43.12,0.036,7.77e-09,236000000.0,92.0,15
25.0,21.99600601192,44.0,0.036,7.77e-09,236000000.0,92.0,15
26.0,22.00861072536,44.88,0.036,7.77e-09,236000000.0,92.0,15
27.0,22.0212154388,45.76,0.036,7.77e-09,236000000.0,92.0,15
28.0,22.04462032314,46.64,0.036,7.77e-09,236000000.0,92.0,15
29.0,22.06802520748,47.52,0.036,7.77e-09,236000000.0,92.0,15
30.0,22.09143009182,48.4,0.036,7.77e-09,236000000.0,92.0,15
31.0,22.11483497616,49.28,0.036,7.77e-09,236000000.0,92.0,15
32.0,22.1382398605,50.16,0.036,7.77e-09,236000000.0,92.0,15
33.0,22.16164474484,51.04,0.036,7.77e-09,236000000.0,92.0,15
34.0,22.18504962918,51.92,0.036,7.77e-09,236000000.0,92.0,15
35.0,22.20845451352,52.8,0.036,7.77e-09,236000000.0,92.0,15
36.0,22.23185939786,53.68,0.036,7.77e-09,236000000.0,92.0,15
37.0,22.2552642822,54.56,0.036,7.77e-09,236000000.0,92.0,15
38.0,22.28939876554,55.44,0.036,7.77e-09,236000000.0,92.0,15
39.0,22.32353324888,56.32,0.036,7.77e-09,236000000.0,92.0,15
40.0,22.35766773222,57.2,0.036,7.77e-09,236000000.0,92.0,15
41.0,22.39180221556,58.08,0.036,7.77e-09,236000000.0,92.0,15
42.0,22.4259366989,58.96,0.036,7.77e-09,236000000.0,92.0,15
43.0,22.46007118224,59.84,0.036,7.77e-09,236000000.0,92.0,15
44.0,22.49420566558,60.72,0.036,7.77e-09,236000000.0,92.0,15
45.0,22.52834014892,61.6,0.036,7.77e-09,236000000.0,92.0,15
46.0,22.56247463226,62.48,0.036,7.77e-09,236000000.0,92.0,15
47.0,22.5966091156,63.36,0.036,7.77e-09,236000000.0,92.0,15
48.0,22.63223609924,64.24,0.036,7.77e-09,236000000.0,92.0,15
49.0,22.66786308288,65.12,0.036,7.77e-09,236000000.0,92.0,15
50.0,22.70349006652,66.0,0.036,7.77e-09,236000000.0,92.0,15
51.0,22.73911705016,62.94,0.036,7.77e-09,236000000.0,92.0,15
52.0,22.7747440338,62.88,0.036,7.77e-09,236000000.0,92.0,15
53.0,22.81037101744,62.82,0.036,7.77e-09,236000000.0,92.0,15
54.0,22.84599800108,62.76,0.036,7.77e-09,236000000.0,92.0,15
55.0,22.88162498472,62.7,0.036,7.77e-09,236000000.0,92.0,15
56.0,22.91725196836,62.64,0.036,7.77e-09,236000000.0,92.0,15
57.0,22.952878952,62.58,0.036,7.77e-09,236000000.0,92.0,15
58.0,22.98680133817,62.52,0.036,7.77e-09,236000000.0,92.0,15
59.0,23.02072372434,62.46,0.036,7.77e-09,236000000.0,92.0,15
60.0,23.05464611051,62.4,0.036,7.77e-09,236000000.0,92.0,15
61.0,23.08856849668,62.34,0.036,7.77e-09,236000000.0,92.0,15
62.0,23.12249088285,62.28,0.036,7.77e-09,236000000.0,92.0,15
63.0,23.15641326902,62.22,0.036,7.77e-09,236000000.0,92.0,15
64.0,23.19033565519,62.16,0.036,7.77e-09,236000000.0,92.0,15
65.0,23.22425804136,62.1,0.036,7.77e-09,236000000.0,92.0,15
66.0,23.25818042753,62.04,0.036,7.77e-09,236000000.0,92.0,15
67.0,23.2921028137,61.98,0.036,7.77e-09,236000000.0,92.0,15
68.0,23.32473983763,61.92,0.036,7.77e-09,236000000.0,92.0,15
69.0,23.35737686156,61.86,0.036,7.77e-09,236000000.0,92.0,15
70.0,23.39001388549,61.8,0.036,7.77e-09,236000000.0,92.0,15
71.0,23.42265090942,61.74,0.036,7.77e-09,236000000.0,92.0,15
72.0,23.45528793335,61.68,0.036,7.77e-09,236000000.0,92.0,15
73.0,23.48792495728,61.62,0.036,7.77e-09,236000000.0,92.0,15
74.0,23.52056198121,61.56,0.036,7.77e-09,236000000.0,92.0,15
75.0,23.55319900514,61.5,0.036,7.77e-09,236000000.0,92.0,15
76.0,23.58583602907,61.44,0.036,7.77e-09,236000000.0,92.0,15
77.0,23.618473053,61.38,0.036,7.77e-09,236000000.0,92.0,15
78.0,23.64987545015,61.32,0.036,7.77e-09,236000000.0,92.0,15
79.0,23.6812778473,61.26,0.036,7.77e-09,236000000.0,92.0,15
80.0,23.71268024445,61.2,0.036,7.77e-09,236000000.0,92.0,15
81.0,23.7440826416,61.14,0.036,7.77e-09,236000000.0,92.0,15
82.0,23.77548503875,61.08,0.036,7.77e-09,236000000.0,92.0,15
83.0,23.8068874359,61.02,0.036,7.77e-09,236000000.0,92.0,15
84.0,23.83828983305,60.96,0.036,7.77e-09,236000000.0,92.0,15
85.0,23.8696922302,60.9,0.036,7.77e-09,236000000.0,92.0,15
86.0,23.90109462735,60.84,0.036,7.77e-09,236000000.0,92.0,15
87.0,23.9324970245,60.78,0.036,7.77e-09,236000000.0,92.0,15
88.0,23.96266784665,60.72,0.036,7.77e-09,236000000.0,92.0,15
89.0,23.9928386688,60.66,0.036,7.77e-09,236000000.0,92.0,15
90.0,24.02300949095,60.6,0.036,7.77e-09,236000000.0,92.0,15
91.0,24.0531803131,60.54,0.036,7.77e-09,236000000.0,92.0,15
92.0,24.08335113525,60.48,0.036,7.77e-09,236000000.0,92.0,15
93.0,24.1135219574,60.42,0.036,7.77e-09,236000000.0,92.0,15
94.0,24.14369277955,60.36,0.036,7.77e-09,236000000.0,92.0,15
95.0,24.1738636017,60.3,0.036,7.77e-09,236000000.0,92.0,15
96.0,24.20403442385,60.24,0.036,7.77e-09,236000000.0,92.0,15
97.0,24.234205246,60.18,0.036,7.77e-09,236000000.0,92.0,15
98.0,24.26390876773,60.12,0.036,7.77e-09,236000000.0,92.0,15
99.0,24.29361228946,60.06,0.036,7.77e-09,236000000.0,92.0,15
100.0,24.32331581119,60.0,0.036,7.77e-09,236000000.0,92.0,15
101.0,24.35301933292,60,0.036,7.77e-09,236000000.0,92.0,15
102.0,24.38272285465,60,0.036,7.77e-09,236000000.0,92.0,15
103.0,24.41242637638,60,0.036,7.77e-09,236000000.0,92.0,15
104.0,24.44212989811,60,0.036,7.77e-09,236000000.0,92.0,15
105.0,24.47183341984,60,0.036,7.77e-09,236000000.0,92.0,15
106.0,24.50153694157,60,0.036,7.77e-09,236000000.0,92.0,15
107.0,24.5312404633,60,0.036,7.77e-09,236000000.0,92.0,15
108.0,24.56073970799,60,0.036,7.77e-09,236000000.0,92.0,15
109.0,24.59023895268,60,0.036,7.77e-09,236000000.0,92.0,15
110.0,24.61973819737,60,0.036,7.77e-09,236000000.0,92.0,15
111.0,24.64923744206,60,0.036,7.77e-09,236000000.0,92.0,15
112.0,24.67873668675,60,0.036,7.77e-09,236000000.0,92.0,15
113.0,24.70823593144,60,0.036,7.77e-09,236000000.0,92.0,15
114.0,24.73773517613,60,0.036,7.77e-09,236000000.0,92.0,15
115.0,24.76723442082,60,0.036,7.77e-09,236000000.0,92.0,15
116.0,24.79673366551,60,0.036,7.77e-09,236000000.0,92.0,15
117.0,24.8262329102,60,0.036,7.77e-09,236000000.0,92.0,15
118.0,24.85549221043,60,0.036,7.77e-09,236000000.0,92.0,15
119.0,24.88475151066,60,0.036,7.77e-09,236000000.0,92.0,15
120.0,24.91401081089,60,0.036,7.77e-09,236000000.0,92.0,15
121.0,24.94327011112,60,0.036,7.77e-09,236000000.0,92.0,15
122.0,24.97252941135,60,0.036,7.77e-09,236000000.0,92.0,15
123.0,25.00178871158,60,0.036,7.77e-09,236000000.0,92.0,15
124.0,25.03104801181,60,0.036,7.77e-09,236000000.0,92.0,15
125.0,25.06030731204,60,0.036,7.77e-09,236000000.0,92.0,15
126.0,25.08956661227,60,0.036,7.77e-09,236000000.0,92.0,15
127.0,25.1188259125,60,0.036,7.77e-09,236000000.0,92.0,15
128.0,25.14784183504,60,0.036,7.77e-09,236000000.0,92.0,15
129.0,25.17685775758,60,0.036,7.77e-09,236000000.0,92.0,15
130.0,25.20587368012,60,0.036,7.77e-09,236000000.0,92.0,15
131.0,25.23488960266,60,0.036,7.77e-09,236000000.0,92.0,15
132.0,25.2639055252,60,0.036,7.77e-09,236000000.0,92.0,15
133.0,25.29292144774,60,0.036,7.77e-09,236000000.0,92.0,15
134.0,25.32193737028,60,0.036,7.77e-09,236000000.0,92.0,15
135.0,25.35095329282,60,0.036,7.77e-09,236000000.0,92.0,15
136.0,25.37996921536,60,0.036,7.77e-09,236000000.0,92.0,15
137.0,25.4089851379,60,0.036,7.77e-09,236000000.0,92.0,15
138.0,25.43775901791,60,0.036,7.77e-09,236000000.0,92.0,15
139.0,25.46653289792,60,0.036,7.77e-09,236000000.0,92.0,15
140.0,25.49530677793,60,0.036,7.77e-09,236000000.0,92.0,15
141.0,25.52408065794,60,0.036,7.77e-09,236000000.0,92.0,15
142.0,25.55285453795,60,0.036,7.77e-09,236000000.0,92.0,15
143.0,25.58162841796,60,0.036,7.77e-09,236000000.0,92.0,15
144.0,25.61040229797,60,0.036,7.77e-09,236000000.0,92.0,15
145.0,25.63917617798,60,0.036,7.77e-09,236000000.0,92.0,15
146.0,25.66795005799,60,0.036,7.77e-09,236000000.0,92.0,15
147.0,25.696723938,60,0.036,7.77e-09,236000000.0,92.0,15
148.0,25.72525787355,60,0.036,7.77e-09,236000000.0,92.0,15
149.0,25.7537918091,60,0.036,7.77e-09,236000000.0,92.0,15
150.0,25.78232574465,60,0.036,7.77e-09,236000000.0,92.0,15
151.0,25.8108596802,60,0.036,7.77e-09,236000000.0,92.0,15
152.0,25.83939361575,60,0.036,7.77e-09,236000000.0,92.0,15
153.0,25.8679275513,60,0.036,7.77e-09,236000000.0,92.0,15
154.0,25.89646148685,60,0.036,7.77e-09,236000000.0,92.0,15
155.0,25.9249954224,60,0.036,7.77e-09,236000000.0,92.0,15
156.0,25.95352935795,60,0.036,7.77e-09,236000000.0,92.0,15
157.0,25.9820632935,60,0.036,7.77e-09,236000000.0,92.0,15
158.0,26.01035938267,60,0.036,7.77e-09,236000000.0,92.0,15
159.0,26.03865547184,60,0.036,7.77e-09,236000000.0,92.0,15
160.0,26.06695156101,60,0.036,7.77e-09,236000000.0,92.0,15
161.0,26.09524765018,60,0.036,7.77e-09,236000000.0,92.0,15
162.0,26.12354373935,60,0.036,7.77e-09,236000000.0,92.0,15
163.0,26.15183982852,60,0.036,7.77e-09,236000000.0,92.0,15
164.0,26.18013591769,60,0.036,7.77e-09,236000000.0,92.0,15
165.0,26.20843200686,60,0.036,7.77e-09,236000000.0,92.0,15
166.0,26.23672809603,60,0.036,7.77e-09,236000000.0,92.0,15
167.0,26.2650241852,60,0.036,7.77e-09,236000000.0,92.0,15
168.0,26.29308490755,60,0.036,7.77e-09,236000000.0,92.0,15
169.0,26.3211456299,60,0.036,7.77e-09,236000000.0,92.0,15
170.0,26.34920635225,60,0.036,7.77e-09,236000000.0,92.0,15
171.0,26.3772670746,60,0.036,7.77e-09,236000000.0,92.0,15
172.0,26.40532779695,60,0.036,7.77e-09,236000000.0,92.0,15
173.0,26.4333885193,60,0.036,7.77e-09,236000000.0,92.0,15
174.0,26.46144924165,60,0.036,7.77e-09,236000000.0,92.0,15
175.0,26.489509964,60,0.036,7.77e-09,236000000.0,92.0,15
176.0,26.51757068635,60,0.036,7.77e-09,236000000.0,92.0,15
177.0,26.5456314087,60,0.036,7.77e-09,236000000.0,92.0,15
178.0,26.57345848084,60,0.036,7.77e-09,236000000.0,92.0,15
179.0,26.60128555298,60,0.036,7.77e-09,236000000.0,92.0,15
180.0,26.62911262512,60,0.036,7.77e-09,236000000.0,92.0,15
181.0,26.65693969726,60,0.036,7.77e-09,236000000.0,92.0,15
182.0,26.6847667694,60,0.036,7.77e-09,236000000.0,92.0,15
183.0,26.71259384154,60,0.036,7.77e-09,236000000.0,92.0,15
184.0,26.74042091368,60,0.036,7.77e-09,236000000.0,92.0,15
185.0,26.76824798582,60,0.036,7.77e-09,236000000.0,92.0,15
186.0,26.79607505796,60,0.036,7.77e-09,236000000.0,92.0,15
187.0,26.8239021301,60,0.036,7.77e-09,236000000.0,92.0,15
188.0,26.85149765012,60,0.036,7.77e-09,236000000.0,92.0,15
189.0,26.87909317014,60,0.036,7.77e-09,236000000.0,92.0,15
190.0,26.90668869016,60,0.036,7.77e-09,236000000.0,92.0,15
191.0,26.93428421018,60,0.036,7.77e-09,236000000.0,92.0,15
192.0,26.9618797302,60,0.036,7.77e-09,236000000.0,92.0,15
193.0,26.98947525022,60,0.036,7.77e-09,236000000.0,92.0,15
194.0,27.01707077024,60,0.036,7.77e-09,236000000.0,92.0,15
195.0,27.04466629026,60,0.036,7.77e-09,236000000.0,92.0,15
196.0,27.07226181028,60,0.036,7.77e-09,236000000.0,92.0,15
197.0,27.0998573303,60,0.036,7.77e-09,236000000.0,92.0,15
198.0,27.12722339628,60,0.036,7.77e-09,236000000.0,92.0,15
199.0,27.15458946226,60,0.036,7.77e-09,236000000.0,92.0,15
200.0,27.18195552824,60,0.036,7.77e-09,236000000.0,92.0,15
201.0,27.20932159422,60,0.036,7.77e-09,236000000.0,92.0,15
202.0,27.2366876602,60,0.036,7.77e-09,236000000.0,92.0,15
203.0,27.26405372618,60,0.036,7.77e-09,236000000.0,92.0,15
204.0,27.29141979216,60,0.036,7.77e-09,236000000.0,92.0,15
205.0,27.31878585814,60,0.036,7.77e-09,236000000.0,92.0,15
206.0,27.34615192412,60,0.036,7.77e-09,236000000.0,92.0,15
207.0,27.3735179901,60,0.036,7.77e-09,236000000.0,92.0,15
208.0,27.40065631865,60,0.036,7.77e-09,236000000.0,92.0,15
209.0,27.4277946472,60,0.036,7.77e-09,236000000.0,92.0,15
210.0,27.45493297575,60,0.036,7.77e-09,236000000.0,92.0,15
211.0,27.4820713043,60,0.036,7.77e-09,236000000.0,92.0,15
212.0,27.50920963285,60,0.036,7.77e-09,236000000.0,92.0,15
213.0,27.5363479614,60,0.036,7.77e-09,236000000.0,92.0,15
214.0,27.56348628995,60,0.036,7.77e-09,236000000.0,92.0,15
215.0,27.5906246185,60,0.036,7.77e-09,236000000.0,92.0,15
216.0,27.61776294705,60,0.036,7.77e-09,236000000.0,92.0,15
217.0,27.6449012756,60,0.036,7.77e-09,236000000.0,92.0,15
218.0,27.67181377408,60,0.036,7.77e-09,236000000.0,92.0,15
219.0,27.69872627256,60,0.036,7.77e-09,236000000.0,92.0,15
220.0,27.72563877104,60,0.036,7.77e-09,236000000.0,92.0,15
221.0,27.75255126952,60,0.036,7.77e-09,236000000.0,92.0,15
222.0,27.779463768,60,0.036,7.77e-09,236000000.0,92.0,15
223.0,27.80637626648,60,0.036,7.77e-09,236000000.0,92.0,15
224.0,27.83328876496,60,0.036,7.77e-09,236000000.0,92.0,15
225.0,27.86020126344,60,0.036,7.77e-09,236000000.0,92.0,15
226.0,27.88711376192,60,0.036,7.77e-09,236000000.0,92.0,15
227.0,27.9140262604,60,0.036,7.77e-09,236000000.0,92.0,15
228.0,27.94071502688,60,0.036,7.77e-09,236000000.0,92.0,15
229.0,27.96740379336,60,0.036,7.77e-09,236000000.0,92.0,15
230.0,27.99409255984,60,0.036,7.77e-09,236000000.0,92.0,15
231.0,28.02078132632,60,0.036,7.77e-09,236000000.0,92.0,15
232.0,28.0474700928,60,0.036,7.77e-09,236000000.0,92.0,15
233.0,28.07415885928,60,0.036,7.77e-09,236000000.0,92.0,15
234.0,28.10084762576,60,0.036,7.77e-09,236000000.0,92.0,15
235.0,28.12753639224,60,0.036,7.77e-09,236000000.0,92.0,15
236.0,28.15422515872,60,0.036,7.77e-09,236000000.0,92.0,15
237.0,28.1809139252,60,0.036,7.77e-09,236000000.0,92.0,15
238.0,28.2073806763,60,0.036,7.77e-09,236000000.0,92.0,15
239.0,28.2338474274,60,0.036,7.77e-09,236000000.0,92.0,15
240.0,28.2603141785,60,0.036,7.77e-09,236000000.0,92.0,15
241.0,28.2867809296,60,0.036,7.77e-09,236000000.0,92.0,15
242.0,28.3132476807,60,0.036,7.77e-09,236000000.0,92.0,15
243.0,28.3397144318,60,0.036,7.77e-09,236000000.0,92.0,15
244.0,28.3661811829,60,0.036,7.77e-09,236000000.0,92.0,15
245.0,28.392647934,60,0.036,7.77e-09,236000000.0,92.0,15
246.0,28.4191146851,60,0.036,7.77e-09,236000000.0,92.0,15
247.0,28.4455814362,60,0.036,7.77e-09,236000000.0,92.0,15
248.0,28.47182807926,60,0.036,7.77e-09,236000000.0,92.0,15
249.0,28.49807472232,60,0.036,7.77e-09,236000000.0,92.0,15
250.0,28.52432136538,60,0.036,7.77e-09,236000000.0,92.0,15
251.0,28.55056800844,60,0.036,7.77e-09,236000000.0,92.0,15
252.0,28.5768146515,60,0.036,7.77e-09,236000000.0,92.0,15
253.0,28.60306129456,60,0.036,7.77e-09,236000000.0,92.0,15
254.0,28.62930793762,60,0.036,7.77e-09,236000000.0,92.0,15
255.0,28.65555458068,60,0.036,7.77e-09,236000000.0,92.0,15
256.0,28.68180122374,60,0.036,7.77e-09,236000000.0,92.0,15
257.0,28.7080478668,60,0.036,7.77e-09,236000000.0,92.0,15
258.0,28.73407611845,60,0.036,7.77e-09,236000000.0,92.0,15
259.0,28.7601043701,60,0.036,7.77e-09,236000000.0,92.0,15
260.0,28.78613262175,60,0.036,7.77e-09,236000000.0,92.0,15
261.0,28.8121608734,60,0.036,7.77e-09,236000000.0,92.0,15
262.0,28.83818912505,60,0.036,7.77e-09,236000000.0,92.0,15
263.0,28.8642173767,60,0.036,7.77e-09,236000000.0,92.0,15
264.0,28.89024562835,60,0.036,7.77e-09,236000000.0,92.0,15
265.0,28.91627388,60,0.036,7.77e-09,236000000.0,92.0,15
266.0,28.94230213165,60,0.036,7.77e-09,236000000.0,92.0,15
267.0,28.9683303833,60,0.036,7.77e-09,236000000.0,92.0,15
268.0,28.99414215088,60,0.036,7.77e-09,236000000.0,92.0,15
269.0,29.01995391846,60,0.036,7.77e-09,236000000.0,92.0,15
270.0,29.04576568604,60,0.036,7.77e-09,236000000.0,92.0,15
271.0,29.07157745362,60,0.036,7.77e-09,236000000.0,92.0,15
272.0,29.0973892212,60,0.036,7.77e-09,236000000.0,92.0,15
273.0,29.12320098878,60,0.036,7.77e-09,236000000.0,92.0,15
274.0,29.14901275636,60,0.036,7.77e-09,236000000.0,92.0,15
275.0,29.17482452394,60,0.036,7.77e-09,236000000.0,92.0,15
276.0,29.20063629152,60,0.036,7.77e-09,236000000.0,92.0,15
277.0,29.2264480591,60,0.036,7.77e-09,236000000.0,92.0,15
278.0,29.25204505922,60,0.036,7.77e-09,236000000.0,92.0,15
279.0,29.27764205934,60,0.036,7.77e-09,236000000.0,92.0,15
280.0,29.30323905946,60,0.036,7.77e-09,236000000.0,92.0,15
281.0,29.32883605958,60,0.036,7.77e-09,236000000.0,92.0,15
282.0,29.3544330597,60,0.036,7.77e-09,236000000.0,92.0,15
283.0,29.38003005982,60,0.036,7.77e-09,236000000.0,92.0,15
284.0,29.40562705994,60,0.036,7.77e-09,236000000.0,92.0,15
285.0,29.43122406006,60,0.036,7.77e-09,236000000.0,92.0,15
286.0,29.45682106018,60,0.036,7.77e-09,236000000.0,92.0,15
287.0,29.4824180603,60,0.036,7.77e-09,236000000.0,92.0,15
288.0,29.50780220031,60,0.036,7.77e-09,236000000.0,92.0,15
289.0,29.53318634032,60,0.036,7.77e-09,236000000.0,92.0,15
290.0,29.55857048033,60,0.036,7.77e-09,236000000.0,92.0,15
291.0,29.58395462034,60,0.036,7.77e-09,236000000.0,92.0,15
292.0,29.60933876035,60,0.036,7.77e-09,236000000.0,92.0,15
293.0,29.63472290036,60,0.036,7.77e-09,236000000.0,92.0,15
294.0,29.66010704037,60,0.036,7.77e-09,236000000.0,92.0,15
295.0,29.68549118038,60,0.036,7.77e-09,236000000.0,92.0,15
296.0,29.71087532039,60,0.036,7.77e-09,236000000.0,92.0,15
297.0,29.7362594604,60,0.036,7.77e-09,236000000.0,92.0,15
298.0,29.76143264766,60,0.036,7.77e-09,236000000.0,92.0,15
299.0,29.78660583492,60,0.036,7.77e-09,236000000.0,92.0,15
300.0,29.81177902218,60,0.036,7.77e-09,236000000.0,92.0,15
301.0,29.83695220944,60,0.036,7.77e-09,236000000.0,92.0,15
302.0,29.8621253967,60,0.036,7.77e-09,236000000.0,92.0,15
303.0,29.88729858396,60,0.036,7.77e-09,236000000.0,92.0,15
304.0,29.91247177122,60,0.036,7.77e-09,236000000.0,92.0,15
305.0,29.93764495848,60,0.036,7.77e-09,236000000.0,92.0,15
306.0,29.96281814574,60,0.036,7.77e-09,236000000.0,92.0,15
307.0,29.987991333,60,0.036,7.77e-09,236000000.0,92.0,15
308.0,30.01295490264,60,0.036,7.77e-09,236000000.0,92.0,15
309.0,30.03791847228,60,0.036,7.77e-09,236000000.0,92.0,15
310.0,30.06288204192,60,0.036,7.77e-09,236000000.0,92.0,15
311.0,30.08784561156,60,0.036,7.77e-09,236000000.0,92.0,15
312.0,30.1128091812,60,0.036,7.77e-09,236000000.0,92.0,15
313.0,30.13777275084,60,0.036,7.77e-09,236000000.0,92.0,15
314.0,30.16273632048,60,0.036,7.77e-09,236000000.0,92.0,15
315.0,30.18769989012,60,0.036,7.77e-09,236000000.0,92.0,15
316.0,30.21266345976,60,0.036,7.77e-09,236000000.0,92.0,15
317.0,30.2376270294,60,0.036,7.77e-09,236000000.0,92.0,15
318.0,30.26238288878,60,0.036,7.77e-09,236000000.0,92.0,15
319.0,30.28713874816,60,0.036,7.77e-09,236000000.0,92.0,15
320.0,30.31189460754,60,0.036,7.77e-09,236000000.0,92.0,15
321.0,30.33665046692,60,0.036,7.77e-09,236000000.0,92.0,15
322.0,30.3614063263,60,0.036,7.77e-09,236000000.0,92.0,15
323.0,30.38616218568,60,0.036,7.77e-09,236000000.0,92.0,15
324.0,30.41091804506,60,0.036,7.77e-09,236000000.0,92.0,15
325.0,30.43567390444,60,0.036,7.77e-09,236000000.0,92.0,15
326.0,30.46042976382,60,0.036,7.77e-09,236000000.0,92.0,15
327.0,30.4851856232,60,0.036,7.77e-09,236000000.0,92.0,15
328.0,30.50973587039,60,0.036,7.77e-09,236000000.0,92.0,15
329.0,30.53428611758,60,0.036,7.77e-09,236000000.0,92.0,15
330.0,30.55883636477,60,0.036,7.77e-09,236000000.0,92.0,15
331.0,30.58338661196,60,0.036,7.77e-09,236000000.0,92.0,15
332.0,30.60793685915,60,0.036,7.77e-09,236000000.0,92.0,15
333.0,30.63248710634,60,0.036,7.77e-09,236000000.0,92.0,15
334.0,30.65703735353,60,0.036,7.77e-09,236000000.0,92.0,15
335.0,30.68158760072,60,0.036,7.77e-09,236000000.0,92.0,15
336.0,30.70613784791,60,0.036,7.77e-09,236000000.0,92.0,15
