time,T_int,T_ext_1,Film_Coef,Density,Specific_Heat,Thermal_Conductivity,Radius
1.0,21.9762153625,22.88,0.036,7.97e-09,236000000.0,132.0,15
2.0,21.9575748444,23.76,0.036,7.97e-09,236000000.0,132.0,15
3.0,21.9418239594,24.64,0.036,7.97e-09,236000000.0,132.0,15
4.0,21.92945957185,25.52,0.036,7.97e-09,236000000.0,132.0,15
5.0,21.9170951843,26.4,0.036,7.97e-09,236000000.0,132.0,15
6.0,21.909646034225,27.28,0.036,7.97e-09,236000000.0,132.0,15
7.0,21.90219688415,28.16,0.036,7.97e-09,236000000.0,132.0,15
8.0,21.894747734075,29.04,0.036,7.97e-09,236000000.0,132.0,15
9.0,21.887298584,29.92,0.036,7.97e-09,236000000.0,132.0,15
10.0,21.88860440255,30.8,0.036,7.97e-09,236000000.0,132.0,15
11.0,21.8899102211,31.68,0.036,7.97e-09,236000000.0,132.0,15
12.0,21.89121603965,32.56,0.036,7.97e-09,236000000.0,132.0,15
13.0,21.8925218582,33.44,0.036,7.97e-09,236000000.0,132.0,15
14.0,21.89382767675,34.32,0.036,7.97e-09,236000000.0,132.0,15
15.0,21.8951334953,35.2,0.036,7.97e-09,236000000.0,132.0,15
16.0,21.89643931385,36.08,0.036,7.97e-09,236000000.0,132.0,15
17.0,21.8977451324,36.96,0.036,7.97e-09,236000000.0,132.0,15
18.0,21.90974636074,37.84,0.036,7.97e-09,236000000.0,132.0,15
19.0,21.92174758908,38.72,0.036,7.97e-09,236000000.0,132.0,15
20.0,21.93374881742,39.6,0.036,7.97e-09,236000000.0,132.0,15
21.0,21.94575004576,40.48,0.036,7.97e-09,236000000.0,132.0,15
22.0,21.9577512741,41.36,0.036,7.97e-09,236000000.0,132.0,15
23.0,21.96975250244,42.24,0.036,7.97e-09,236000000.0,132.0,15
24.0,21.98175373078,43.12,0.036,7.97e-09,236000000.0,132.0,15
25.0,21.99375495912,44.0,0.036,7.97e-09,236000000.0,132.0,15
26.0,22.00575618746,44.88,0.036,7.97e-09,236000000.0,132.0,15
27.0,22.0177574158,45.76,0.036,7.97e-09,236000000.0,132.0,15
28.0,22.04038448336,46.64,0.036,7.97e-09,236000000.0,132.0,15
29.0,22.06301155092,47.52,0.036,7.97e-09,236000000.0,132.0,15
30.0,22.08563861848,48.4,0.036,7.97e-09,236000000.0,132.0,15
31.0,22.10826568604,49.28,0.036,7.97e-09,236000000.0,132.0,15
32.0,22.1308927536,50.16,0.036,7.97e-09,236000000.0,132.0,15
33.0,22.15351982116,51.04,0.036,7.97e-09,236000000.0,132.0,15
34.0,22.17614688872,51.92,0.036,7.97e-09,236000000.0,132.0,15
35.0,22.19877395628,52.8,0.036,7.97e-09,236000000.0,132.0,15
36.0,22.22140102384,53.68,0.036,7.97e-09,236000000.0,132.0,15
37.0,22.2440280914,54.56,0.036,7.97e-09,236000000.0,132.0,15
38.0,22.27721977231,55.44,0.036,7.97e-09,236000000.0,132.0,15
39.0,22.31041145322,56.32,0.036,7.97e-09,236000000.0,132.0,15
40.0,22.34360313413,57.2,0.036,7.97e-09,236000000.0,132.0,15
41.0,22.37679481504,58.08,0.036,7.97e-09,236000000.0,132.0,15
42.0,22.40998649595,58.96,0.036,7.97e-09,236000000.0,132.0,15
43.0,22.44317817686,59.84,0.036,7.97e-09,236000000.0,132.0,15
44.0,22.47636985777,60.72,0.036,7.97e-09,236000000.0,132.0,15
45.0,22.50956153868,61.6,0.036,7.97e-09,236000000.0,132.0,15
46.0,22.54275321959,62.48,0.036,7.97e-09,236000000.0,132.0,15
47.0,22.5759449005,63.36,0.036,7.97e-09,236000000.0,132.0,15
48.0,22.61084823607,64.24,0.036,7.97e-09,236000000.0,132.0,15
49.0,22.64575157164,65.12,0.036,7.97e-09,236000000.0,132.0,15
50.0,22.68065490721,66.0,0.036,7.97e-09,236000000.0,132.0,15
51.0,22.71555824278,62.94,0.036,7.97e-09,236000000.0,132.0,15
52.0,22.75046157835,62.88,0.036,7.97e-09,236000000.0,132.0,15
53.0,22.78536491392,62.82,0.036,7.97e-09,236000000.0,132.0,15
54.0,22.82026824949,62.76,0.036,7.97e-09,236000000.0,132.0,15
55.0,22.85517158506,62.7,0.036,7.97e-09,236000000.0,132.0,15
56.0,22.89007492063,62.64,0.036,7.97e-09,236000000.0,132.0,15
57.0,22.9249782562,62.58,0.036,7.97e-09,236000000.0,132.0,15
58.0,22.95836086271,62.52,0.036,7.97e-09,236000000.0,132.0,15
59.0,22.99174346922,62.46,0.036,7.97e-09,236000000.0,132.0,15
60.0,23.02512607573,62.4,0.036,7.97e-09,236000000.0,132.0,15
61.0,23.05850868224,62.34,0.036,7.97e-09,236000000.0,132.0,15
62.0,23.09189128875,62.28,0.036,7.97e-09,236000000.0,132.0,15
63.0,23.12527389526,62.22,0.036,7.97e-09,236000000.0,132.0,15
64.0,23.15865650177,62.16,0.036,7.97e-09,236000000.0,132.0,15
65.0,23.19203910828,62.1,0.036,7.97e-09,236000000.0,132.0,15
66.0,23.22542171479,62.04,0.036,7.97e-09,236000000.0,132.0,15
67.0,23.2588043213,61.98,0.036,7.97e-09,236000000.0,132.0,15
68.0,23.29094944001,61.92,0.036,7.97e-09,236000000.0,132.0,15
69.0,23.32309455872,61.86,0.036,7.97e-09,236000000.0,132.0,15
70.0,23.35523967743,61.8,0.036,7.97e-09,236000000.0,132.0,15
71.0,23.38738479614,61.74,0.036,7.97e-09,236000000.0,132.0,15
72.0,23.41952991485,61.68,0.036,7.97e-09,236000000.0,132.0,15
73.0,23.45167503356,61.62,0.036,7.97e-09,236000000.0,132.0,15
74.0,23.48382015227,61.56,0.036,7.97e-09,236000000.0,132.0,15
75.0,23.51596527098,61.5,0.036,7.97e-09,236000000.0,132.0,15
76.0,23.54811038969,61.44,0.036,7.97e-09,236000000.0,132.0,15
77.0,23.5802555084,61.38,0.036,7.97e-09,236000000.0,132.0,15
78.0,23.61118278501,61.32,0.036,7.97e-09,236000000.0,132.0,15
79.0,23.64211006162,61.26,0.036,7.97e-09,236000000.0,132.0,15
80.0,23.67303733823,61.2,0.036,7.97e-09,236000000.0,132.0,15
81.0,23.70396461484,61.14,0.036,7.97e-09,236000000.0,132.0,15
82.0,23.73489189145,61.08,0.036,7.97e-09,236000000.0,132.0,15
83.0,23.76581916806,61.02,0.036,7.97e-09,236000000.0,132.0,15
84.0,23.79674644467,60.96,0.036,7.97e-09,236000000.0,132.0,15
85.0,23.82767372128,60.9,0.036,7.97e-09,236000000.0,132.0,15
86.0,23.85860099789,60.84,0.036,7.97e-09,236000000.0,132.0,15
87.0,23.8895282745,60.78,0.036,7.97e-09,236000000.0,132.0,15
88.0,23.91923770901,60.72,0.036,7.97e-09,236000000.0,132.0,15
89.0,23.94894714352,60.66,0.036,7.97e-09,236000000.0,132.0,15
90.0,23.97865657803,60.6,0.036,7.97e-09,236000000.0,132.0,15
91.0,24.00836601254,60.54,0.036,7.97e-09,236000000.0,132.0,15
92.0,24.03807544705,60.48,0.036,7.97e-09,236000000.0,132.0,15
93.0,24.06778488156,60.42,0.036,7.97e-09,236000000.0,132.0,15
94.0,24.09749431607,60.36,0.036,7.97e-09,236000000.0,132.0,15
95.0,24.12720375058,60.3,0.036,7.97e-09,236000000.0,132.0,15
96.0,24.15691318509,60.24,0.036,7.97e-09,236000000.0,132.0,15
97.0,24.1866226196,60.18,0.036,7.97e-09,236000000.0,132.0,15
98.0,24.2158489227,60.12,0.036,7.97e-09,236000000.0,132.0,15
99.0,24.2450752258,60.06,0.036,7.97e-09,236000000.0,132.0,15
100.0,24.2743015289,60.0,0.036,7.97e-09,236000000.0,132.0,15
101.0,24.303527832,60,0.036,7.97e-09,236000000.0,132.0,15
102.0,24.3327541351,60,0.036,7.97e-09,236000000.0,132.0,15
103.0,24.3619804382,60,0.036,7.97e-09,236000000.0,132.0,15
104.0,24.3912067413,60,0.036,7.97e-09,236000000.0,132.0,15
105.0,24.4204330444,60,0.036,7.97e-09,236000000.0,132.0,15
106.0,24.4496593475,60,0.036,7.97e-09,236000000.0,132.0,15
107.0,24.4788856506,60,0.036,7.97e-09,236000000.0,132.0,15
108.0,24.50789756772,60,0.036,7.97e-09,236000000.0,132.0,15
109.0,24.53690948484,60,0.036,7.97e-09,236000000.0,132.0,15
110.0,24.56592140196,60,0.036,7.97e-09,236000000.0,132.0,15
111.0,24.59493331908,60,0.036,7.97e-09,236000000.0,132.0,15
112.0,24.6239452362,60,0.036,7.97e-09,236000000.0,132.0,15
113.0,24.65295715332,60,0.036,7.97e-09,236000000.0,132.0,15
114.0,24.68196907044,60,0.036,7.97e-09,236000000.0,132.0,15
115.0,24.71098098756,60,0.036,7.97e-09,236000000.0,132.0,15
116.0,24.73999290468,60,0.036,7.97e-09,236000000.0,132.0,15
117.0,24.7690048218,60,0.036,7.97e-09,236000000.0,132.0,15
118.0,24.79778003695,60,0.036,7.97e-09,236000000.0,132.0,15
119.0,24.8265552521,60,0.036,7.97e-09,236000000.0,132.0,15
120.0,24.85533046725,60,0.036,7.97e-09,236000000.0,132.0,15
121.0,24.8841056824,60,0.036,7.97e-09,236000000.0,132.0,15
122.0,24.91288089755,60,0.036,7.97e-09,236000000.0,132.0,15
123.0,24.9416561127,60,0.036,7.97e-09,236000000.0,132.0,15
124.0,24.97043132785,60,0.036,7.97e-09,236000000.0,132.0,15
125.0,24.999206543,60,0.036,7.97e-09,236000000.0,132.0,15
126.0,25.02798175815,60,0.036,7.97e-09,236000000.0,132.0,15
127.0,25.0567569733,60,0.036,7.97e-09,236000000.0,132.0,15
128.0,25.08529567722,60,0.036,7.97e-09,236000000.0,132.0,15
129.0,25.11383438114,60,0.036,7.97e-09,236000000.0,132.0,15
130.0,25.14237308506,60,0.036,7.97e-09,236000000.0,132.0,15
131.0,25.17091178898,60,0.036,7.97e-09,236000000.0,132.0,15
132.0,25.1994504929,60,0.036,7.97e-09,236000000.0,132.0,15
133.0,25.22798919682,60,0.036,7.97e-09,236000000.0,132.0,15
134.0,25.25652790074,60,0.036,7.97e-09,236000000.0,132.0,15
135.0,25.28506660466,60,0.036,7.97e-09,236000000.0,132.0,15
136.0,25.31360530858,60,0.036,7.97e-09,236000000.0,132.0,15
137.0,25.3421440125,60,0.036,7.97e-09,236000000.0,132.0,15
138.0,25.37044887547,60,0.036,7.97e-09,236000000.0,132.0,15
139.0,25.39875373844,60,0.036,7.97e-09,236000000.0,132.0,15
140.0,25.42705860141,60,0.036,7.97e-09,236000000.0,132.0,15
141.0,25.45536346438,60,0.036,7.97e-09,236000000.0,132.0,15
142.0,25.48366832735,60,0.036,7.97e-09,236000000.0,132.0,15
143.0,25.51197319032,60,0.036,7.97e-09,236000000.0,132.0,15
144.0,25.54027805329,60,0.036,7.97e-09,236000000.0,132.0,15
145.0,25.56858291626,60,0.036,7.97e-09,236000000.0,132.0,15
146.0,25.59688777923,60,0.036,7.97e-09,236000000.0,132.0,15
147.0,25.6251926422,60,0.036,7.97e-09,236000000.0,132.0,15
148.0,25.65326595305,60,0.036,7.97e-09,236000000.0,132.0,15
149.0,25.6813392639,60,0.036,7.97e-09,236000000.0,132.0,15
150.0,25.70941257475,60,0.036,7.97e-09,236000000.0,132.0,15
151.0,25.7374858856,60,0.036,7.97e-09,236000000.0,132.0,15
152.0,25.76555919645,60,0.036,7.97e-09,236000000.0,132.0,15
153.0,25.7936325073,60,0.036,7.97e-09,236000000.0,132.0,15
154.0,25.82170581815,60,0.036,7.97e-09,236000000.0,132.0,15
155.0,25.849779129,60,0.036,7.97e-09,236000000.0,132.0,15
156.0,25.87785243985,60,0.036,7.97e-09,236000000.0,132.0,15
157.0,25.9059257507,60,0.036,7.97e-09,236000000.0,132.0,15
158.0,25.93376941678,60,0.036,7.97e-09,236000000.0,132.0,15
159.0,25.96161308286,60,0.036,7.97e-09,236000000.0,132.0,15
160.0,25.98945674894,60,0.036,7.97e-09,236000000.0,132.0,15
161.0,26.01730041502,60,0.036,7.97e-09,236000000.0,132.0,15
162.0,26.0451440811,60,0.036,7.97e-09,236000000.0,132.0,15
163.0,26.07298774718,60,0.036,7.97e-09,236000000.0,132.0,15
164.0,26.10083141326,60,0.036,7.97e-09,236000000.0,132.0,15
165.0,26.12867507934,60,0.036,7.97e-09,236000000.0,132.0,15
166.0,26.15651874542,60,0.036,7.97e-09,236000000.0,132.0,15
167.0,26.1843624115,60,0.036,7.97e-09,236000000.0,132.0,15
168.0,26.21197872162,60,0.036,7.97e-09,236000000.0,132.0,15
169.0,26.23959503174,60,0.036,7.97e-09,236000000.0,132.0,15
170.0,26.26721134186,60,0.036,7.97e-09,236000000.0,132.0,15
171.0,26.29482765198,60,0.036,7.97e-09,236000000.0,132.0,15
172.0,26.3224439621,60,0.036,7.97e-09,236000000.0,132.0,15
173.0,26.35006027222,60,0.036,7.97e-09,236000000.0,132.0,15
174.0,26.37767658234,60,0.036,7.97e-09,236000000.0,132.0,15
175.0,26.40529289246,60,0.036,7.97e-09,236000000.0,132.0,15
176.0,26.43290920258,60,0.036,7.97e-09,236000000.0,132.0,15
177.0,26.4605255127,60,0.036,7.97e-09,236000000.0,132.0,15
178.0,26.48791618348,60,0.036,7.97e-09,236000000.0,132.0,15
179.0,26.51530685426,60,0.036,7.97e-09,236000000.0,132.0,15
180.0,26.54269752504,60,0.036,7.97e-09,236000000.0,132.0,15
181.0,26.57008819582,60,0.036,7.97e-09,236000000.0,132.0,15
182.0,26.5974788666,60,0.036,7.97e-09,236000000.0,132.0,15
183.0,26.62486953738,60,0.036,7.97e-09,236000000.0,132.0,15
184.0,26.65226020816,60,0.036,7.97e-09,236000000.0,132.0,15
185.0,26.67965087894,60,0.036,7.97e-09,236000000.0,132.0,15
186.0,26.70704154972,60,0.036,7.97e-09,236000000.0,132.0,15
187.0,26.7344322205,60,0.036,7.97e-09,236000000.0,132.0,15
188.0,26.76159915928,60,0.036,7.97e-09,236000000.0,132.0,15
189.0,26.78876609806,60,0.036,7.97e-09,236000000.0,132.0,15
190.0,26.81593303684,60,0.036,7.97e-09,236000000.0,132.0,15
191.0,26.84309997562,60,0.036,7.97e-09,236000000.0,132.0,15
192.0,26.8702669144,60,0.036,7.97e-09,236000000.0,132.0,15
193.0,26.89743385318,60,0.036,7.97e-09,236000000.0,132.0,15
194.0,26.92460079196,60,0.036,7.97e-09,236000000.0,132.0,15
195.0,26.95176773074,60,0.036,7.97e-09,236000000.0,132.0,15
196.0,26.97893466952,60,0.036,7.97e-09,236000000.0,132.0,15
197.0,27.0061016083,60,0.036,7.97e-09,236000000.0,132.0,15
198.0,27.03304672243,60,0.036,7.97e-09,236000000.0,132.0,15
199.0,27.05999183656,60,0.036,7.97e-09,236000000.0,132.0,15
200.0,27.08693695069,60,0.036,7.97e-09,236000000.0,132.0,15
201.0,27.11388206482,60,0.036,7.97e-09,236000000.0,132.0,15
202.0,27.14082717895,60,0.036,7.97e-09,236000000.0,132.0,15
203.0,27.16777229308,60,0.036,7.97e-09,236000000.0,132.0,15
204.0,27.19471740721,60,0.036,7.97e-09,236000000.0,132.0,15
205.0,27.22166252134,60,0.036,7.97e-09,236000000.0,132.0,15
206.0,27.24860763547,60,0.036,7.97e-09,236000000.0,132.0,15
207.0,27.2755527496,60,0.036,7.97e-09,236000000.0,132.0,15
208.0,27.30227775571,60,0.036,7.97e-09,236000000.0,132.0,15
209.0,27.32900276182,60,0.036,7.97e-09,236000000.0,132.0,15
210.0,27.35572776793,60,0.036,7.97e-09,236000000.0,132.0,15
211.0,27.38245277404,60,0.036,7.97e-09,236000000.0,132.0,15
212.0,27.40917778015,60,0.036,7.97e-09,236000000.0,132.0,15
213.0,27.43590278626,60,0.036,7.97e-09,236000000.0,132.0,15
214.0,27.46262779237,60,0.036,7.97e-09,236000000.0,132.0,15
215.0,27.48935279848,60,0.036,7.97e-09,236000000.0,132.0,15
216.0,27.51607780459,60,0.036,7.97e-09,236000000.0,132.0,15
217.0,27.5428028107,60,0.036,7.97e-09,236000000.0,132.0,15
218.0,27.56930961612,60,0.036,7.97e-09,236000000.0,132.0,15
219.0,27.59581642154,60,0.036,7.97e-09,236000000.0,132.0,15
220.0,27.62232322696,60,0.036,7.97e-09,236000000.0,132.0,15
221.0,27.64883003238,60,0.036,7.97e-09,236000000.0,132.0,15
222.0,27.6753368378,60,0.036,7.97e-09,236000000.0,132.0,15
223.0,27.70184364322,60,0.036,7.97e-09,236000000.0,132.0,15
224.0,27.72835044864,60,0.036,7.97e-09,236000000.0,132.0,15
225.0,27.75485725406,60,0.036,7.97e-09,236000000.0,132.0,15
226.0,27.78136405948,60,0.036,7.97e-09,236000000.0,132.0,15
227.0,27.8078708649,60,0.036,7.97e-09,236000000.0,132.0,15
228.0,27.83416118625,60,0.036,7.97e-09,236000000.0,132.0,15
229.0,27.8604515076,60,0.036,7.97e-09,236000000.0,132.0,15
230.0,27.88674182895,60,0.036,7.97e-09,236000000.0,132.0,15
231.0,27.9130321503,60,0.036,7.97e-09,236000000.0,132.0,15
232.0,27.93932247165,60,0.036,7.97e-09,236000000.0,132.0,15
233.0,27.965612793,60,0.036,7.97e-09,236000000.0,132.0,15
234.0,27.99190311435,60,0.036,7.97e-09,236000000.0,132.0,15
235.0,28.0181934357,60,0.036,7.97e-09,236000000.0,132.0,15
236.0,28.04448375705,60,0.036,7.97e-09,236000000.0,132.0,15
237.0,28.0707740784,60,0.036,7.97e-09,236000000.0,132.0,15
238.0,28.09684963229,60,0.036,7.97e-09,236000000.0,132.0,15
239.0,28.12292518618,60,0.036,7.97e-09,236000000.0,132.0,15
240.0,28.14900074007,60,0.036,7.97e-09,236000000.0,132.0,15
241.0,28.17507629396,60,0.036,7.97e-09,236000000.0,132.0,15
242.0,28.20115184785,60,0.036,7.97e-09,236000000.0,132.0,15
243.0,28.22722740174,60,0.036,7.97e-09,236000000.0,132.0,15
244.0,28.25330295563,60,0.036,7.97e-09,236000000.0,132.0,15
245.0,28.27937850952,60,0.036,7.97e-09,236000000.0,132.0,15
246.0,28.30545406341,60,0.036,7.97e-09,236000000.0,132.0,15
247.0,28.3315296173,60,0.036,7.97e-09,236000000.0,132.0,15
248.0,28.35739231109,60,0.036,7.97e-09,236000000.0,132.0,15
249.0,28.38325500488,60,0.036,7.97e-09,236000000.0,132.0,15
250.0,28.40911769867,60,0.036,7.97e-09,236000000.0,132.0,15
251.0,28.43498039246,60,0.036,7.97e-09,236000000.0,132.0,15
252.0,28.46084308625,60,0.036,7.97e-09,236000000.0,132.0,15
253.0,28.48670578004,60,0.036,7.97e-09,236000000.0,132.0,15
254.0,28.51256847383,60,0.036,7.97e-09,236000000.0,132.0,15
255.0,28.53843116762,60,0.036,7.97e-09,236000000.0,132.0,15
256.0,28.56429386141,60,0.036,7.97e-09,236000000.0,132.0,15
257.0,28.5901565552,60,0.036,7.97e-09,236000000.0,132.0,15
258.0,28.61580791476,60,0.036,7.97e-09,236000000.0,132.0,15
259.0,28.64145927432,60,0.036,7.97e-09,236000000.0,132.0,15
260.0,28.66711063388,60,0.036,7.97e-09,236000000.0,132.0,15
261.0,28.69276199344,60,0.036,7.97e-09,236000000.0,132.0,15
262.0,28.718413353,60,0.036,7.97e-09,236000000.0,132.0,15
263.0,28.74406471256,60,0.036,7.97e-09,236000000.0,132.0,15
264.0,28.76971607212,60,0.036,7.97e-09,236000000.0,132.0,15
265.0,28.79536743168,60,0.036,7.97e-09,236000000.0,132.0,15
266.0,28.82101879124,60,0.036,7.97e-09,236000000.0,132.0,15
267.0,28.8466701508,60,0.036,7.97e-09,236000000.0,132.0,15
268.0,28.87211208347,60,0.036,7.97e-09,236000000.0,132.0,15
269.0,28.89755401614,60,0.036,7.97e-09,236000000.0,132.0,15
270.0,28.92299594881,60,0.036,7.97e-09,236000000.0,132.0,15
271.0,28.94843788148,60,0.036,7.97e-09,236000000.0,132.0,15
272.0,28.97387981415,60,0.036,7.97e-09,236000000.0,132.0,15
273.0,28.99932174682,60,0.036,7.97e-09,236000000.0,132.0,15
274.0,29.02476367949,60,0.036,7.97e-09,236000000.0,132.0,15
275.0,29.05020561216,60,0.036,7.97e-09,236000000.0,132.0,15
276.0,29.07564754483,60,0.036,7.97e-09,236000000.0,132.0,15
277.0,29.1010894775,60,0.036,7.97e-09,236000000.0,132.0,15
278.0,29.12632350918,60,0.036,7.97e-09,236000000.0,132.0,15
279.0,29.15155754086,60,0.036,7.97e-09,236000000.0,132.0,15
280.0,29.17679157254,60,0.036,7.97e-09,236000000.0,132.0,15
281.0,29.20202560422,60,0.036,7.97e-09,236000000.0,132.0,15
282.0,29.2272596359,60,0.036,7.97e-09,236000000.0,132.0,15
283.0,29.25249366758,60,0.036,7.97e-09,236000000.0,132.0,15
284.0,29.27772769926,60,0.036,7.97e-09,236000000.0,132.0,15
285.0,29.30296173094,60,0.036,7.97e-09,236000000.0,132.0,15
286.0,29.32819576262,60,0.036,7.97e-09,236000000.0,132.0,15
287.0,29.3534297943,60,0.036,7.97e-09,236000000.0,132.0,15
288.0,29.37845802306,60,0.036,7.97e-09,236000000.0,132.0,15
289.0,29.40348625182,60,0.036,7.97e-09,236000000.0,132.0,15
290.0,29.42851448058,60,0.036,7.97e-09,236000000.0,132.0,15
291.0,29.45354270934,60,0.036,7.97e-09,236000000.0,132.0,15
292.0,29.4785709381,60,0.036,7.97e-09,236000000.0,132.0,15
293.0,29.50359916686,60,0.036,7.97e-09,236000000.0,132.0,15
294.0,29.52862739562,60,0.036,7.97e-09,236000000.0,132.0,15
295.0,29.55365562438,60,0.036,7.97e-09,236000000.0,132.0,15
296.0,29.57868385314,60,0.036,7.97e-09,236000000.0,132.0,15
297.0,29.6037120819,60,0.036,7.97e-09,236000000.0,132.0,15
298.0,29.62853565215,60,0.036,7.97e-09,236000000.0,132.0,15
299.0,29.6533592224,60,0.036,7.97e-09,236000000.0,132.0,15
300.0,29.67818279265,60,0.036,7.97e-09,236000000.0,132.0,15
301.0,29.7030063629,60,0.036,7.97e-09,236000000.0,132.0,15
302.0,29.72782993315,60,0.036,7.97e-09,236000000.0,132.0,15
303.0,29.7526535034,60,0.036,7.97e-09,236000000.0,132.0,15
304.0,29.77747707365,60,0.036,7.97e-09,236000000.0,132.0,15
305.0,29.8023006439,60,0.036,7.97e-09,236000000.0,132.0,15
306.0,29.82712421415,60,0.036,7.97e-09,236000000.0,132.0,15
307.0,29.8519477844,60,0.036,7.97e-09,236000000.0,132.0,15
308.0,29.87656879423,60,0.036,7.97e-09,236000000.0,132.0,15
309.0,29.90118980406,60,0.036,7.97e-09,236000000.0,132.0,15
310.0,29.92581081389,60,0.036,7.97e-09,236000000.0,132.0,15
311.0,29.95043182372,60,0.036,7.97e-09,236000000.0,132.0,15
312.0,29.97505283355,60,0.036,7.97e-09,236000000.0,132.0,15
313.0,29.99967384338,60,0.036,7.97e-09,236000000.0,132.0,15
314.0,30.02429485321,60,0.036,7.97e-09,236000000.0,132.0,15
315.0,30.04891586304,60,0.036,7.97e-09,236000000.0,132.0,15
316.0,30.07353687287,60,0.036,7.97e-09,236000000.0,132.0,15
317.0,30.0981578827,60,0.036,7.97e-09,236000000.0,132.0,15
318.0,30.12257766724,60,0.036,7.97e-09,236000000.0,132.0,15
319.0,30.14699745178,60,0.036,7.97e-09,236000000.0,132.0,15
320.0,30.17141723632,60,0.036,7.97e-09,236000000.0,132.0,15
321.0,30.19583702086,60,0.036,7.97e-09,236000000.0,132.0,15
322.0,30.2202568054,60,0.036,7.97e-09,236000000.0,132.0,15
323.0,30.24467658994,60,0.036,7.97e-09,236000000.0,132.0,15
324.0,30.26909637448,60,0.036,7.97e-09,236000000.0,132.0,15
325.0,30.29351615902,60,0.036,7.97e-09,236000000.0,132.0,15
326.0,30.31793594356,60,0.036,7.97e-09,236000000.0,132.0,15
327.0,30.3423557281,60,0.036,7.97e-09,236000000.0,132.0,15
328.0,30.36657619472,60,0.036,7.97e-09,236000000.0,132.0,15
329.0,30.39079666134,60,0.036,7.97e-09,236000000.0,132.0,15
330.0,30.41501712796,60,0.036,7.97e-09,236000000.0,132.0,15
