time,T_int,T_ext_1,Film_Coef,Density,Specific_Heat,Thermal_Conductivity,Radius
1.0,21.994972229,22.88,0.036,2.81e-09,571000000.0,285.0,25
2.0,21.9860801697,23.76,0.036,2.81e-09,571000000.0,285.0,25
3.0,21.9750480652,24.64,0.036,2.81e-09,571000000.0,285.0,25
4.0,21.9635772705,25.52,0.036,2.81e-09,571000000.0,285.0,25
5.0,21.9521064758,26.4,0.036,2.81e-09,571000000.0,285.0,25
6.0,21.943459510775,27.28,0.036,2.81e-09,571000000.0,285.0,25
7.0,21.93481254575,28.16,0.036,2.81e-09,571000000.0,285.0,25
8.0,21.926165580725,29.04,0.036,2.81e-09,571000000.0,285.0,25
9.0,21.9175186157,29.92,0.036,2.81e-09,571000000.0,285.0,25
10.0,21.9164023399125,30.8,0.036,2.81e-09,571000000.0,285.0,25
11.0,21.915286064125,31.68,0.036,2.81e-09,571000000.0,285.0,25
12.0,21.9141697883375,32.56,0.036,2.81e-09,571000000.0,285.0,25
13.0,21.91305351255,33.44,0.036,2.81e-09,571000000.0,285.0,25
14.0,21.9119372367625,34.32,0.036,2.81e-09,571000000.0,285.0,25
15.0,21.910820960975,35.2,0.036,2.81e-09,571000000.0,285.0,25
16.0,21.9097046851875,36.08,0.036,2.81e-09,571000000.0,285.0,25
17.0,21.9085884094,36.96,0.036,2.81e-09,571000000.0,285.0,25
18.0,21.91718921659,37.84,0.036,2.81e-09,571000000.0,285.0,25
19.0,21.92579002378,38.72,0.036,2.81e-09,571000000.0,285.0,25
20.0,21.93439083097,39.6,0.036,2.81e-09,571000000.0,285.0,25
21.0,21.94299163816,40.48,0.036,2.81e-09,571000000.0,285.0,25
22.0,21.95159244535,41.36,0.036,2.81e-09,571000000.0,285.0,25
23.0,21.96019325254,42.24,0.036,2.81e-09,571000000.0,285.0,25
24.0,21.96879405973,43.12,0.036,2.81e-09,571000000.0,285.0,25
25.0,21.97739486692,44.0,0.036,2.81e-09,571000000.0,285.0,25
26.0,21.98599567411,44.88,0.036,2.81e-09,571000000.0,285.0,25
27.0,21.9945964813,45.76,0.036,2.81e-09,571000000.0,285.0,25
28.0,22.01290454862,46.64,0.036,2.81e-09,571000000.0,285.0,25
29.0,22.03121261594,47.52,0.036,2.81e-09,571000000.0,285.0,25
30.0,22.04952068326,48.4,0.036,2.81e-09,571000000.0,285.0,25
31.0,22.06782875058,49.28,0.036,2.81e-09,571000000.0,285.0,25
32.0,22.0861368179,50.16,0.036,2.81e-09,571000000.0,285.0,25
33.0,22.10444488522,51.04,0.036,2.81e-09,571000000.0,285.0,25
34.0,22.12275295254,51.92,0.036,2.81e-09,571000000.0,285.0,25
35.0,22.14106101986,52.8,0.036,2.81e-09,571000000.0,285.0,25
36.0,22.15936908718,53.68,0.036,2.81e-09,571000000.0,285.0,25
37.0,22.1776771545,54.56,0.036,2.81e-09,571000000.0,285.0,25
38.0,22.20563545223,55.44,0.036,2.81e-09,571000000.0,285.0,25
39.0,22.23359374996,56.32,0.036,2.81e-09,571000000.0,285.0,25
40.0,22.26155204769,57.2,0.036,2.81e-09,571000000.0,285.0,25
41.0,22.28951034542,58.08,0.036,2.81e-09,571000000.0,285.0,25
42.0,22.31746864315,58.96,0.036,2.81e-09,571000000.0,285.0,25
43.0,22.34542694088,59.84,0.036,2.81e-09,571000000.0,285.0,25
44.0,22.37338523861,60.72,0.036,2.81e-09,571000000.0,285.0,25
45.0,22.40134353634,61.6,0.036,2.81e-09,571000000.0,285.0,25
46.0,22.42930183407,62.48,0.036,2.81e-09,571000000.0,285.0,25
47.0,22.4572601318,63.36,0.036,2.81e-09,571000000.0,285.0,25
48.0,22.48839054104,64.24,0.036,2.81e-09,571000000.0,285.0,25
49.0,22.51952095028,65.12,0.036,2.81e-09,571000000.0,285.0,25
50.0,22.55065135952,66.0,0.036,2.81e-09,571000000.0,285.0,25
51.0,22.58178176876,62.94,0.036,2.81e-09,571000000.0,285.0,25
52.0,22.612912178,62.88,0.036,2.81e-09,571000000.0,285.0,25
53.0,22.64404258724,62.82,0.036,2.81e-09,571000000.0,285.0,25
54.0,22.67517299648,62.76,0.036,2.81e-09,571000000.0,285.0,25
55.0,22.70630340572,62.7,0.036,2.81e-09,571000000.0,285.0,25
56.0,22.73743381496,62.64,0.036,2.81e-09,571000000.0,285.0,25
57.0,22.7685642242,62.58,0.036,2.81e-09,571000000.0,285.0,25
58.0,22.79916858669,62.52,0.036,2.81e-09,571000000.0,285.0,25
59.0,22.82977294918,62.46,0.036,2.81e-09,571000000.0,285.0,25
60.0,22.86037731167,62.4,0.036,2.81e-09,571000000.0,285.0,25
61.0,22.89098167416,62.34,0.036,2.81e-09,571000000.0,285.0,25
62.0,22.92158603665,62.28,0.036,2.81e-09,571000000.0,285.0,25
63.0,22.95219039914,62.22,0.036,2.81e-09,571000000.0,285.0,25
64.0,22.98279476163,62.16,0.036,2.81e-09,571000000.0,285.0,25
65.0,23.01339912412,62.1,0.036,2.81e-09,571000000.0,285.0,25
66.0,23.04400348661,62.04,0.036,2.81e-09,571000000.0,285.0,25
67.0,23.0746078491,61.98,0.036,2.81e-09,571000000.0,285.0,25
68.0,23.10417671202,61.92,0.036,2.81e-09,571000000.0,285.0,25
69.0,23.13374557494,61.86,0.036,2.81e-09,571000000.0,285.0,25
70.0,23.16331443786,61.8,0.036,2.81e-09,571000000.0,285.0,25
71.0,23.19288330078,61.74,0.036,2.81e-09,571000000.0,285.0,25
72.0,23.2224521637,61.68,0.036,2.81e-09,571000000.0,285.0,25
73.0,23.25202102662,61.62,0.036,2.81e-09,571000000.0,285.0,25
74.0,23.28158988954,61.56,0.036,2.81e-09,571000000.0,285.0,25
75.0,23.31115875246,61.5,0.036,2.81e-09,571000000.0,285.0,25
76.0,23.34072761538,61.44,0.036,2.81e-09,571000000.0,285.0,25
77.0,23.3702964783,61.38,0.036,2.81e-09,571000000.0,285.0,25
78.0,23.39877071383,61.32,0.036,2.81e-09,571000000.0,285.0,25
79.0,23.42724494936,61.26,0.036,2.81e-09,571000000.0,285.0,25
80.0,23.45571918489,61.2,0.036,2.81e-09,571000000.0,285.0,25
81.0,23.48419342042,61.14,0.036,2.81e-09,571000000.0,285.0,25
82.0,23.51266765595,61.08,0.036,2.81e-09,571000000.0,285.0,25
83.0,23.54114189148,61.02,0.036,2.81e-09,571000000.0,285.0,25
84.0,23.56961612701,60.96,0.036,2.81e-09,571000000.0,285.0,25
85.0,23.59809036254,60.9,0.036,2.81e-09,571000000.0,285.0,25
86.0,23.62656459807,60.84,0.036,2.81e-09,571000000.0,285.0,25
87.0,23.6550388336,60.78,0.036,2.81e-09,571000000.0,285.0,25
88.0,23.68241558073,60.72,0.036,2.81e-09,571000000.0,285.0,25
89.0,23.70979232786,60.66,0.036,2.81e-09,571000000.0,285.0,25
90.0,23.73716907499,60.6,0.036,2.81e-09,571000000.0,285.0,25
91.0,23.76454582212,60.54,0.036,2.81e-09,571000000.0,285.0,25
92.0,23.79192256925,60.48,0.036,2.81e-09,571000000.0,285.0,25
93.0,23.81929931638,60.42,0.036,2.81e-09,571000000.0,285.0,25
94.0,23.84667606351,60.36,0.036,2.81e-09,571000000.0,285.0,25
95.0,23.87405281064,60.3,0.036,2.81e-09,571000000.0,285.0,25
96.0,23.90142955777,60.24,0.036,2.81e-09,571000000.0,285.0,25
97.0,23.9288063049,60.18,0.036,2.81e-09,571000000.0,285.0,25
98.0,23.95562534329,60.12,0.036,2.81e-09,571000000.0,285.0,25
99.0,23.98244438168,60.06,0.036,2.81e-09,571000000.0,285.0,25
100.0,24.00926342007,60.0,0.036,2.81e-09,571000000.0,285.0,25
101.0,24.03608245846,60,0.036,2.81e-09,571000000.0,285.0,25
102.0,24.06290149685,60,0.036,2.81e-09,571000000.0,285.0,25
103.0,24.08972053524,60,0.036,2.81e-09,571000000.0,285.0,25
104.0,24.11653957363,60,0.036,2.81e-09,571000000.0,285.0,25
105.0,24.14335861202,60,0.036,2.81e-09,571000000.0,285.0,25
106.0,24.17017765041,60,0.036,2.81e-09,571000000.0,285.0,25
107.0,24.1969966888,60,0.036,2.81e-09,571000000.0,285.0,25
108.0,24.22356758114,60,0.036,2.81e-09,571000000.0,285.0,25
109.0,24.25013847348,60,0.036,2.81e-09,571000000.0,285.0,25
110.0,24.27670936582,60,0.036,2.81e-09,571000000.0,285.0,25
111.0,24.30328025816,60,0.036,2.81e-09,571000000.0,285.0,25
112.0,24.3298511505,60,0.036,2.81e-09,571000000.0,285.0,25
113.0,24.35642204284,60,0.036,2.81e-09,571000000.0,285.0,25
114.0,24.38299293518,60,0.036,2.81e-09,571000000.0,285.0,25
115.0,24.40956382752,60,0.036,2.81e-09,571000000.0,285.0,25
116.0,24.43613471986,60,0.036,2.81e-09,571000000.0,285.0,25
117.0,24.4627056122,60,0.036,2.81e-09,571000000.0,285.0,25
118.0,24.48907260896,60,0.036,2.81e-09,571000000.0,285.0,25
119.0,24.51543960572,60,0.036,2.81e-09,571000000.0,285.0,25
120.0,24.54180660248,60,0.036,2.81e-09,571000000.0,285.0,25
121.0,24.56817359924,60,0.036,2.81e-09,571000000.0,285.0,25
122.0,24.594540596,60,0.036,2.81e-09,571000000.0,285.0,25
123.0,24.62090759276,60,0.036,2.81e-09,571000000.0,285.0,25
124.0,24.64727458952,60,0.036,2.81e-09,571000000.0,285.0,25
125.0,24.67364158628,60,0.036,2.81e-09,571000000.0,285.0,25
126.0,24.70000858304,60,0.036,2.81e-09,571000000.0,285.0,25
127.0,24.7263755798,60,0.036,2.81e-09,571000000.0,285.0,25
128.0,24.75254573819,60,0.036,2.81e-09,571000000.0,285.0,25
129.0,24.77871589658,60,0.036,2.81e-09,571000000.0,285.0,25
130.0,24.80488605497,60,0.036,2.81e-09,571000000.0,285.0,25
131.0,24.83105621336,60,0.036,2.81e-09,571000000.0,285.0,25
132.0,24.85722637175,60,0.036,2.81e-09,571000000.0,285.0,25
133.0,24.88339653014,60,0.036,2.81e-09,571000000.0,285.0,25
134.0,24.90956668853,60,0.036,2.81e-09,571000000.0,285.0,25
135.0,24.93573684692,60,0.036,2.81e-09,571000000.0,285.0,25
136.0,24.96190700531,60,0.036,2.81e-09,571000000.0,285.0,25
137.0,24.9880771637,60,0.036,2.81e-09,571000000.0,285.0,25
138.0,25.01405296326,60,0.036,2.81e-09,571000000.0,285.0,25
139.0,25.04002876282,60,0.036,2.81e-09,571000000.0,285.0,25
140.0,25.06600456238,60,0.036,2.81e-09,571000000.0,285.0,25
141.0,25.09198036194,60,0.036,2.81e-09,571000000.0,285.0,25
142.0,25.1179561615,60,0.036,2.81e-09,571000000.0,285.0,25
143.0,25.14393196106,60,0.036,2.81e-09,571000000.0,285.0,25
144.0,25.16990776062,60,0.036,2.81e-09,571000000.0,285.0,25
145.0,25.19588356018,60,0.036,2.81e-09,571000000.0,285.0,25
146.0,25.22185935974,60,0.036,2.81e-09,571000000.0,285.0,25
147.0,25.2478351593,60,0.036,2.81e-09,571000000.0,285.0,25
148.0,25.27361793518,60,0.036,2.81e-09,571000000.0,285.0,25
149.0,25.29940071106,60,0.036,2.81e-09,571000000.0,285.0,25
150.0,25.32518348694,60,0.036,2.81e-09,571000000.0,285.0,25
151.0,25.35096626282,60,0.036,2.81e-09,571000000.0,285.0,25
152.0,25.3767490387,60,0.036,2.81e-09,571000000.0,285.0,25
153.0,25.40253181458,60,0.036,2.81e-09,571000000.0,285.0,25
154.0,25.42831459046,60,0.036,2.81e-09,571000000.0,285.0,25
155.0,25.45409736634,60,0.036,2.81e-09,571000000.0,285.0,25
156.0,25.47988014222,60,0.036,2.81e-09,571000000.0,285.0,25
157.0,25.5056629181,60,0.036,2.81e-09,571000000.0,285.0,25
158.0,25.53125457764,60,0.036,2.81e-09,571000000.0,285.0,25
159.0,25.55684623718,60,0.036,2.81e-09,571000000.0,285.0,25
160.0,25.58243789672,60,0.036,2.81e-09,571000000.0,285.0,25
161.0,25.60802955626,60,0.036,2.81e-09,571000000.0,285.0,25
162.0,25.6336212158,60,0.036,2.81e-09,571000000.0,285.0,25
163.0,25.65921287534,60,0.036,2.81e-09,571000000.0,285.0,25
164.0,25.68480453488,60,0.036,2.81e-09,571000000.0,285.0,25
165.0,25.71039619442,60,0.036,2.81e-09,571000000.0,285.0,25
166.0,25.73598785396,60,0.036,2.81e-09,571000000.0,285.0,25
167.0,25.7615795135,60,0.036,2.81e-09,571000000.0,285.0,25
168.0,25.78698120113,60,0.036,2.81e-09,571000000.0,285.0,25
169.0,25.81238288876,60,0.036,2.81e-09,571000000.0,285.0,25
170.0,25.83778457639,60,0.036,2.81e-09,571000000.0,285.0,25
171.0,25.86318626402,60,0.036,2.81e-09,571000000.0,285.0,25
172.0,25.88858795165,60,0.036,2.81e-09,571000000.0,285.0,25
173.0,25.91398963928,60,0.036,2.81e-09,571000000.0,285.0,25
174.0,25.93939132691,60,0.036,2.81e-09,571000000.0,285.0,25
175.0,25.96479301454,60,0.036,2.81e-09,571000000.0,285.0,25
176.0,25.99019470217,60,0.036,2.81e-09,571000000.0,285.0,25
177.0,26.0155963898,60,0.036,2.81e-09,571000000.0,285.0,25
178.0,26.04080963137,60,0.036,2.81e-09,571000000.0,285.0,25
179.0,26.06602287294,60,0.036,2.81e-09,571000000.0,285.0,25
180.0,26.09123611451,60,0.036,2.81e-09,571000000.0,285.0,25
181.0,26.11644935608,60,0.036,2.81e-09,571000000.0,285.0,25
182.0,26.14166259765,60,0.036,2.81e-09,571000000.0,285.0,25
183.0,26.16687583922,60,0.036,2.81e-09,571000000.0,285.0,25
184.0,26.19208908079,60,0.036,2.81e-09,571000000.0,285.0,25
185.0,26.21730232236,60,0.036,2.81e-09,571000000.0,285.0,25
186.0,26.24251556393,60,0.036,2.81e-09,571000000.0,285.0,25
187.0,26.2677288055,60,0.036,2.81e-09,571000000.0,285.0,25
188.0,26.29275493618,60,0.036,2.81e-09,571000000.0,285.0,25
189.0,26.31778106686,60,0.036,2.81e-09,571000000.0,285.0,25
190.0,26.34280719754,60,0.036,2.81e-09,571000000.0,285.0,25
191.0,26.36783332822,60,0.036,2.81e-09,571000000.0,285.0,25
192.0,26.3928594589,60,0.036,2.81e-09,571000000.0,285.0,25
193.0,26.41788558958,60,0.036,2.81e-09,571000000.0,285.0,25
194.0,26.44291172026,60,0.036,2.81e-09,571000000.0,285.0,25
195.0,26.46793785094,60,0.036,2.81e-09,571000000.0,285.0,25
196.0,26.49296398162,60,0.036,2.81e-09,571000000.0,285.0,25
197.0,26.5179901123,60,0.036,2.81e-09,571000000.0,285.0,25
198.0,26.54283065795,60,0.036,2.81e-09,571000000.0,285.0,25
199.0,26.5676712036,60,0.036,2.81e-09,571000000.0,285.0,25
200.0,26.59251174925,60,0.036,2.81e-09,571000000.0,285.0,25
201.0,26.6173522949,60,0.036,2.81e-09,571000000.0,285.0,25
202.0,26.64219284055,60,0.036,2.81e-09,571000000.0,285.0,25
203.0,26.6670333862,60,0.036,2.81e-09,571000000.0,285.0,25
204.0,26.69187393185,60,0.036,2.81e-09,571000000.0,285.0,25
205.0,26.7167144775,60,0.036,2.81e-09,571000000.0,285.0,25
206.0,26.74155502315,60,0.036,2.81e-09,571000000.0,285.0,25
207.0,26.7663955688,60,0.036,2.81e-09,571000000.0,285.0,25
208.0,26.79105186458,60,0.036,2.81e-09,571000000.0,285.0,25
209.0,26.81570816036,60,0.036,2.81e-09,571000000.0,285.0,25
210.0,26.84036445614,60,0.036,2.81e-09,571000000.0,285.0,25
211.0,26.86502075192,60,0.036,2.81e-09,571000000.0,285.0,25
212.0,26.8896770477,60,0.036,2.81e-09,571000000.0,285.0,25
213.0,26.91433334348,60,0.036,2.81e-09,571000000.0,285.0,25
214.0,26.93898963926,60,0.036,2.81e-09,571000000.0,285.0,25
215.0,26.96364593504,60,0.036,2.81e-09,571000000.0,285.0,25
216.0,26.98830223082,60,0.036,2.81e-09,571000000.0,285.0,25
217.0,27.0129585266,60,0.036,2.81e-09,571000000.0,285.0,25
218.0,27.03743171691,60,0.036,2.81e-09,571000000.0,285.0,25
219.0,27.06190490722,60,0.036,2.81e-09,571000000.0,285.0,25
220.0,27.08637809753,60,0.036,2.81e-09,571000000.0,285.0,25
221.0,27.11085128784,60,0.036,2.81e-09,571000000.0,285.0,25
222.0,27.13532447815,60,0.036,2.81e-09,571000000.0,285.0,25
223.0,27.15979766846,60,0.036,2.81e-09,571000000.0,285.0,25
224.0,27.18427085877,60,0.036,2.81e-09,571000000.0,285.0,25
225.0,27.20874404908,60,0.036,2.81e-09,571000000.0,285.0,25
226.0,27.23321723939,60,0.036,2.81e-09,571000000.0,285.0,25
227.0,27.2576904297,60,0.036,2.81e-09,571000000.0,285.0,25
228.0,27.28198223115,60,0.036,2.81e-09,571000000.0,285.0,25
229.0,27.3062740326,60,0.036,2.81e-09,571000000.0,285.0,25
230.0,27.33056583405,60,0.036,2.81e-09,571000000.0,285.0,25
231.0,27.3548576355,60,0.036,2.81e-09,571000000.0,285.0,25
232.0,27.37914943695,60,0.036,2.81e-09,571000000.0,285.0,25
233.0,27.4034412384,60,0.036,2.81e-09,571000000.0,285.0,25
234.0,27.42773303985,60,0.036,2.81e-09,571000000.0,285.0,25
235.0,27.4520248413,60,0.036,2.81e-09,571000000.0,285.0,25
236.0,27.47631664275,60,0.036,2.81e-09,571000000.0,285.0,25
237.0,27.5006084442,60,0.036,2.81e-09,571000000.0,285.0,25
238.0,27.52472000121,60,0.036,2.81e-09,571000000.0,285.0,25
239.0,27.54883155822,60,0.036,2.81e-09,571000000.0,285.0,25
240.0,27.57294311523,60,0.036,2.81e-09,571000000.0,285.0,25
241.0,27.59705467224,60,0.036,2.81e-09,571000000.0,285.0,25
242.0,27.62116622925,60,0.036,2.81e-09,571000000.0,285.0,25
243.0,27.64527778626,60,0.036,2.81e-09,571000000.0,285.0,25
244.0,27.66938934327,60,0.036,2.81e-09,571000000.0,285.0,25
245.0,27.69350090028,60,0.036,2.81e-09,571000000.0,285.0,25
246.0,27.71761245729,60,0.036,2.81e-09,571000000.0,285.0,25
247.0,27.7417240143,60,0.036,2.81e-09,571000000.0,285.0,25
248.0,27.765656662,60,0.036,2.81e-09,571000000.0,285.0,25
249.0,27.7895893097,60,0.036,2.81e-09,571000000.0,285.0,25
250.0,27.8135219574,60,0.036,2.81e-09,571000000.0,285.0,25
251.0,27.8374546051,60,0.036,2.81e-09,571000000.0,285.0,25
252.0,27.8613872528,60,0.036,2.81e-09,571000000.0,285.0,25
253.0,27.8853199005,60,0.036,2.81e-09,571000000.0,285.0,25
254.0,27.9092525482,60,0.036,2.81e-09,571000000.0,285.0,25
255.0,27.9331851959,60,0.036,2.81e-09,571000000.0,285.0,25
256.0,27.9571178436,60,0.036,2.81e-09,571000000.0,285.0,25
257.0,27.9810504913,60,0.036,2.81e-09,571000000.0,285.0,25
258.0,28.00480556485,60,0.036,2.81e-09,571000000.0,285.0,25
259.0,28.0285606384,60,0.036,2.81e-09,571000000.0,285.0,25
260.0,28.05231571195,60,0.036,2.81e-09,571000000.0,285.0,25
261.0,28.0760707855,60,0.036,2.81e-09,571000000.0,285.0,25
262.0,28.09982585905,60,0.036,2.81e-09,571000000.0,285.0,25
263.0,28.1235809326,60,0.036,2.81e-09,571000000.0,285.0,25
264.0,28.14733600615,60,0.036,2.81e-09,571000000.0,285.0,25
265.0,28.1710910797,60,0.036,2.81e-09,571000000.0,285.0,25
266.0,28.19484615325,60,0.036,2.81e-09,571000000.0,285.0,25
267.0,28.2186012268,60,0.036,2.81e-09,571000000.0,285.0,25
268.0,28.24218006133,60,0.036,2.81e-09,571000000.0,285.0,25
269.0,28.26575889586,60,0.036,2.81e-09,571000000.0,285.0,25
270.0,28.28933773039,60,0.036,2.81e-09,571000000.0,285.0,25
271.0,28.31291656492,60,0.036,2.81e-09,571000000.0,285.0,25
272.0,28.33649539945,60,0.036,2.81e-09,571000000.0,285.0,25
273.0,28.36007423398,60,0.036,2.81e-09,571000000.0,285.0,25
274.0,28.38365306851,60,0.036,2.81e-09,571000000.0,285.0,25
275.0,28.40723190304,60,0.036,2.81e-09,571000000.0,285.0,25
276.0,28.43081073757,60,0.036,2.81e-09,571000000.0,285.0,25
277.0,28.4543895721,60,0.036,2.81e-09,571000000.0,285.0,25
278.0,28.47779331203,60,0.036,2.81e-09,571000000.0,285.0,25
279.0,28.50119705196,60,0.036,2.81e-09,571000000.0,285.0,25
280.0,28.52460079189,60,0.036,2.81e-09,571000000.0,285.0,25
281.0,28.54800453182,60,0.036,2.81e-09,571000000.0,285.0,25
282.0,28.57140827175,60,0.036,2.81e-09,571000000.0,285.0,25
283.0,28.59481201168,60,0.036,2.81e-09,571000000.0,285.0,25
284.0,28.61821575161,60,0.036,2.81e-09,571000000.0,285.0,25
285.0,28.64161949154,60,0.036,2.81e-09,571000000.0,285.0,25
286.0,28.66502323147,60,0.036,2.81e-09,571000000.0,285.0,25
287.0,28.6884269714,60,0.036,2.81e-09,571000000.0,285.0,25
288.0,28.71165733334,60,0.036,2.81e-09,571000000.0,285.0,25
289.0,28.73488769528,60,0.036,2.81e-09,571000000.0,285.0,25
290.0,28.75811805722,60,0.036,2.81e-09,571000000.0,285.0,25
291.0,28.78134841916,60,0.036,2.81e-09,571000000.0,285.0,25
292.0,28.8045787811,60,0.036,2.81e-09,571000000.0,285.0,25
293.0,28.82780914304,60,0.036,2.81e-09,571000000.0,285.0,25
294.0,28.85103950498,60,0.036,2.81e-09,571000000.0,285.0,25
295.0,28.87426986692,60,0.036,2.81e-09,571000000.0,285.0,25
296.0,28.89750022886,60,0.036,2.81e-09,571000000.0,285.0,25
297.0,28.9207305908,60,0.036,2.81e-09,571000000.0,285.0,25
298.0,28.94378852842,60,0.036,2.81e-09,571000000.0,285.0,25
299.0,28.96684646604,60,0.036,2.81e-09,571000000.0,285.0,25
300.0,28.98990440366,60,0.036,2.81e-09,571000000.0,285.0,25
301.0,29.01296234128,60,0.036,2.81e-09,571000000.0,285.0,25
302.0,29.0360202789,60,0.036,2.81e-09,571000000.0,285.0,25
303.0,29.05907821652,60,0.036,2.81e-09,571000000.0,285.0,25
304.0,29.08213615414,60,0.036,2.81e-09,571000000.0,285.0,25
305.0,29.10519409176,60,0.036,2.81e-09,571000000.0,285.0,25
306.0,29.12825202938,60,0.036,2.81e-09,571000000.0,285.0,25
307.0,29.151309967,60,0.036,2.81e-09,571000000.0,285.0,25
308.0,29.17419681545,60,0.036,2.81e-09,571000000.0,285.0,25
309.0,29.1970836639,60,0.036,2.81e-09,571000000.0,285.0,25
310.0,29.21997051235,60,0.036,2.81e-09,571000000.0,285.0,25
311.0,29.2428573608,60,0.036,2.81e-09,571000000.0,285.0,25
312.0,29.26574420925,60,0.036,2.81e-09,571000000.0,285.0,25
313.0,29.2886310577,60,0.036,2.81e-09,571000000.0,285.0,25
314.0,29.31151790615,60,0.036,2.81e-09,571000000.0,285.0,25
315.0,29.3344047546,60,0.036,2.81e-09,571000000.0,285.0,25
316.0,29.35729160305,60,0.036,2.81e-09,571000000.0,285.0,25
317.0,29.3801784515,60,0.036,2.81e-09,571000000.0,285.0,25
318.0,29.40289535519,60,0.036,2.81e-09,571000000.0,285.0,25
319.0,29.42561225888,60,0.036,2.81e-09,571000000.0,285.0,25
320.0,29.44832916257,60,0.036,2.81e-09,571000000.0,285.0,25
321.0,29.47104606626,60,0.036,2.81e-09,571000000.0,285.0,25
322.0,29.49376296995,60,0.036,2.81e-09,571000000.0,285.0,25
323.0,29.51647987364,60,0.036,2.81e-09,571000000.0,285.0,25
324.0,29.53919677733,60,0.036,2.81e-09,571000000.0,285.0,25
325.0,29.56191368102,60,0.036,2.81e-09,571000000.0,285.0,25
326.0,29.58463058471,60,0.036,2.81e-09,571000000.0,285.0,25
327.0,29.6073474884,60,0.036,2.81e-09,571000000.0,285.0,25
328.0,29.6298959732,60,0.036,2.81e-09,571000000.0,285.0,25
329.0,29.652444458,60,0.036,2.81e-09,571000000.0,285.0,25
330.0,29.6749929428,60,0.036,2.81e-09,571000000.0,285.0,25
