time,T_int,T_ext_1,Film_Coef,Density,Specific_Heat,Thermal_Conductivity,Radius
1.0,21.9803371429,22.88,0.036,7.97e-09,336000000.0,132.0,15
2.0,21.9648704529,23.76,0.036,7.97e-09,336000000.0,132.0,15
3.0,21.9519042969,24.64,0.036,7.97e-09,336000000.0,132.0,15
4.0,21.9418754578,25.52,0.036,7.97e-09,336000000.0,132.0,15
5.0,21.9318466187,26.4,0.036,7.97e-09,336000000.0,132.0,15
6.0,21.9259400368,27.28,0.036,7.97e-09,336000000.0,132.0,15
7.0,21.9200334549,28.16,0.036,7.97e-09,336000000.0,132.0,15
8.0,21.914126873,29.04,0.036,7.97e-09,336000000.0,132.0,15
9.0,21.9082202911,29.92,0.036,7.97e-09,336000000.0,132.0,15
10.0,21.9094154834375,30.8,0.036,7.97e-09,336000000.0,132.0,15
11.0,21.910610675775,31.68,0.036,7.97e-09,336000000.0,132.0,15
12.0,21.9118058681125,32.56,0.036,7.97e-09,336000000.0,132.0,15
13.0,21.91300106045,33.44,0.036,7.97e-09,336000000.0,132.0,15
14.0,21.9141962527875,34.32,0.036,7.97e-09,336000000.0,132.0,15
15.0,21.915391445125,35.2,0.036,7.97e-09,336000000.0,132.0,15
16.0,21.9165866374625,36.08,0.036,7.97e-09,336000000.0,132.0,15
17.0,21.9177818298,36.96,0.036,7.97e-09,336000000.0,132.0,15
18.0,21.92755393979,37.84,0.036,7.97e-09,336000000.0,132.0,15
19.0,21.93732604978,38.72,0.036,7.97e-09,336000000.0,132.0,15
20.0,21.94709815977,39.6,0.036,7.97e-09,336000000.0,132.0,15
21.0,21.95687026976,40.48,0.036,7.97e-09,336000000.0,132.0,15
22.0,21.96664237975,41.36,0.036,7.97e-09,336000000.0,132.0,15
23.0,21.97641448974,42.24,0.036,7.97e-09,336000000.0,132.0,15
24.0,21.98618659973,43.12,0.036,7.97e-09,336000000.0,132.0,15
25.0,21.99595870972,44.0,0.036,7.97e-09,336000000.0,132.0,15
26.0,22.00573081971,44.88,0.036,7.97e-09,336000000.0,132.0,15
27.0,22.0155029297,45.76,0.036,7.97e-09,336000000.0,132.0,15
28.0,22.03378524781,46.64,0.036,7.97e-09,336000000.0,132.0,15
29.0,22.05206756592,47.52,0.036,7.97e-09,336000000.0,132.0,15
30.0,22.07034988403,48.4,0.036,7.97e-09,336000000.0,132.0,15
31.0,22.08863220214,49.28,0.036,7.97e-09,336000000.0,132.0,15
32.0,22.10691452025,50.16,0.036,7.97e-09,336000000.0,132.0,15
33.0,22.12519683836,51.04,0.036,7.97e-09,336000000.0,132.0,15
34.0,22.14347915647,51.92,0.036,7.97e-09,336000000.0,132.0,15
35.0,22.16176147458,52.8,0.036,7.97e-09,336000000.0,132.0,15
36.0,22.18004379269,53.68,0.036,7.97e-09,336000000.0,132.0,15
37.0,22.1983261108,54.56,0.036,7.97e-09,336000000.0,132.0,15
38.0,22.22508163449,55.44,0.036,7.97e-09,336000000.0,132.0,15
39.0,22.25183715818,56.32,0.036,7.97e-09,336000000.0,132.0,15
40.0,22.27859268187,57.2,0.036,7.97e-09,336000000.0,132.0,15
41.0,22.30534820556,58.08,0.036,7.97e-09,336000000.0,132.0,15
42.0,22.33210372925,58.96,0.036,7.97e-09,336000000.0,132.0,15
43.0,22.35885925294,59.84,0.036,7.97e-09,336000000.0,132.0,15
44.0,22.38561477663,60.72,0.036,7.97e-09,336000000.0,132.0,15
45.0,22.41237030032,61.6,0.036,7.97e-09,336000000.0,132.0,15
46.0,22.43912582401,62.48,0.036,7.97e-09,336000000.0,132.0,15
47.0,22.4658813477,63.36,0.036,7.97e-09,336000000.0,132.0,15
48.0,22.49393444065,64.24,0.036,7.97e-09,336000000.0,132.0,15
49.0,22.5219875336,65.12,0.036,7.97e-09,336000000.0,132.0,15
50.0,22.55004062655,66.0,0.036,7.97e-09,336000000.0,132.0,15
51.0,22.5780937195,62.94,0.036,7.97e-09,336000000.0,132.0,15
52.0,22.60614681245,62.88,0.036,7.97e-09,336000000.0,132.0,15
53.0,22.6341999054,62.82,0.036,7.97e-09,336000000.0,132.0,15
54.0,22.66225299835,62.76,0.036,7.97e-09,336000000.0,132.0,15
55.0,22.6903060913,62.7,0.036,7.97e-09,336000000.0,132.0,15
56.0,22.71835918425,62.64,0.036,7.97e-09,336000000.0,132.0,15
57.0,22.7464122772,62.58,0.036,7.97e-09,336000000.0,132.0,15
58.0,22.77322387693,62.52,0.036,7.97e-09,336000000.0,132.0,15
59.0,22.80003547666,62.46,0.036,7.97e-09,336000000.0,132.0,15
60.0,22.82684707639,62.4,0.036,7.97e-09,336000000.0,132.0,15
61.0,22.85365867612,62.34,0.036,7.97e-09,336000000.0,132.0,15
62.0,22.88047027585,62.28,0.036,7.97e-09,336000000.0,132.0,15
63.0,22.90728187558,62.22,0.036,7.97e-09,336000000.0,132.0,15
64.0,22.93409347531,62.16,0.036,7.97e-09,336000000.0,132.0,15
65.0,22.96090507504,62.1,0.036,7.97e-09,336000000.0,132.0,15
66.0,22.98771667477,62.04,0.036,7.97e-09,336000000.0,132.0,15
67.0,23.0145282745,61.98,0.036,7.97e-09,336000000.0,132.0,15
68.0,23.04038486477,61.92,0.036,7.97e-09,336000000.0,132.0,15
69.0,23.06624145504,61.86,0.036,7.97e-09,336000000.0,132.0,15
70.0,23.09209804531,61.8,0.036,7.97e-09,336000000.0,132.0,15
71.0,23.11795463558,61.74,0.036,7.97e-09,336000000.0,132.0,15
72.0,23.14381122585,61.68,0.036,7.97e-09,336000000.0,132.0,15
73.0,23.16966781612,61.62,0.036,7.97e-09,336000000.0,132.0,15
74.0,23.19552440639,61.56,0.036,7.97e-09,336000000.0,132.0,15
75.0,23.22138099666,61.5,0.036,7.97e-09,336000000.0,132.0,15
76.0,23.24723758693,61.44,0.036,7.97e-09,336000000.0,132.0,15
77.0,23.2730941772,61.38,0.036,7.97e-09,336000000.0,132.0,15
78.0,23.29802265163,61.32,0.036,7.97e-09,336000000.0,132.0,15
79.0,23.32295112606,61.26,0.036,7.97e-09,336000000.0,132.0,15
80.0,23.34787960049,61.2,0.036,7.97e-09,336000000.0,132.0,15
81.0,23.37280807492,61.14,0.036,7.97e-09,336000000.0,132.0,15
82.0,23.39773654935,61.08,0.036,7.97e-09,336000000.0,132.0,15
83.0,23.42266502378,61.02,0.036,7.97e-09,336000000.0,132.0,15
84.0,23.44759349821,60.96,0.036,7.97e-09,336000000.0,132.0,15
85.0,23.47252197264,60.9,0.036,7.97e-09,336000000.0,132.0,15
86.0,23.49745044707,60.84,0.036,7.97e-09,336000000.0,132.0,15
87.0,23.5223789215,60.78,0.036,7.97e-09,336000000.0,132.0,15
88.0,23.54637794494,60.72,0.036,7.97e-09,336000000.0,132.0,15
89.0,23.57037696838,60.66,0.036,7.97e-09,336000000.0,132.0,15
90.0,23.59437599182,60.6,0.036,7.97e-09,336000000.0,132.0,15
91.0,23.61837501526,60.54,0.036,7.97e-09,336000000.0,132.0,15
92.0,23.6423740387,60.48,0.036,7.97e-09,336000000.0,132.0,15
93.0,23.66637306214,60.42,0.036,7.97e-09,336000000.0,132.0,15
94.0,23.69037208558,60.36,0.036,7.97e-09,336000000.0,132.0,15
95.0,23.71437110902,60.3,0.036,7.97e-09,336000000.0,132.0,15
96.0,23.73837013246,60.24,0.036,7.97e-09,336000000.0,132.0,15
97.0,23.7623691559,60.18,0.036,7.97e-09,336000000.0,132.0,15
98.0,23.78603210451,60.12,0.036,7.97e-09,336000000.0,132.0,15
99.0,23.80969505312,60.06,0.036,7.97e-09,336000000.0,132.0,15
100.0,23.83335800173,60.0,0.036,7.97e-09,336000000.0,132.0,15
101.0,23.85702095034,60,0.036,7.97e-09,336000000.0,132.0,15
102.0,23.88068389895,60,0.036,7.97e-09,336000000.0,132.0,15
103.0,23.90434684756,60,0.036,7.97e-09,336000000.0,132.0,15
104.0,23.92800979617,60,0.036,7.97e-09,336000000.0,132.0,15
105.0,23.95167274478,60,0.036,7.97e-09,336000000.0,132.0,15
106.0,23.97533569339,60,0.036,7.97e-09,336000000.0,132.0,15
107.0,23.998998642,60,0.036,7.97e-09,336000000.0,132.0,15
108.0,24.02253456119,60,0.036,7.97e-09,336000000.0,132.0,15
109.0,24.04607048038,60,0.036,7.97e-09,336000000.0,132.0,15
110.0,24.06960639957,60,0.036,7.97e-09,336000000.0,132.0,15
111.0,24.09314231876,60,0.036,7.97e-09,336000000.0,132.0,15
112.0,24.11667823795,60,0.036,7.97e-09,336000000.0,132.0,15
113.0,24.14021415714,60,0.036,7.97e-09,336000000.0,132.0,15
114.0,24.16375007633,60,0.036,7.97e-09,336000000.0,132.0,15
115.0,24.18728599552,60,0.036,7.97e-09,336000000.0,132.0,15
116.0,24.21082191471,60,0.036,7.97e-09,336000000.0,132.0,15
117.0,24.2343578339,60,0.036,7.97e-09,336000000.0,132.0,15
118.0,24.2577423096,60,0.036,7.97e-09,336000000.0,132.0,15
119.0,24.2811267853,60,0.036,7.97e-09,336000000.0,132.0,15
120.0,24.304511261,60,0.036,7.97e-09,336000000.0,132.0,15
121.0,24.3278957367,60,0.036,7.97e-09,336000000.0,132.0,15
122.0,24.3512802124,60,0.036,7.97e-09,336000000.0,132.0,15
123.0,24.3746646881,60,0.036,7.97e-09,336000000.0,132.0,15
124.0,24.3980491638,60,0.036,7.97e-09,336000000.0,132.0,15
125.0,24.4214336395,60,0.036,7.97e-09,336000000.0,132.0,15
126.0,24.4448181152,60,0.036,7.97e-09,336000000.0,132.0,15
127.0,24.4682025909,60,0.036,7.97e-09,336000000.0,132.0,15
128.0,24.49143333431,60,0.036,7.97e-09,336000000.0,132.0,15
129.0,24.51466407772,60,0.036,7.97e-09,336000000.0,132.0,15
130.0,24.53789482113,60,0.036,7.97e-09,336000000.0,132.0,15
131.0,24.56112556454,60,0.036,7.97e-09,336000000.0,132.0,15
132.0,24.58435630795,60,0.036,7.97e-09,336000000.0,132.0,15
133.0,24.60758705136,60,0.036,7.97e-09,336000000.0,132.0,15
134.0,24.63081779477,60,0.036,7.97e-09,336000000.0,132.0,15
135.0,24.65404853818,60,0.036,7.97e-09,336000000.0,132.0,15
136.0,24.67727928159,60,0.036,7.97e-09,336000000.0,132.0,15
137.0,24.700510025,60,0.036,7.97e-09,336000000.0,132.0,15
138.0,24.72358818052,60,0.036,7.97e-09,336000000.0,132.0,15
139.0,24.74666633604,60,0.036,7.97e-09,336000000.0,132.0,15
140.0,24.76974449156,60,0.036,7.97e-09,336000000.0,132.0,15
141.0,24.79282264708,60,0.036,7.97e-09,336000000.0,132.0,15
142.0,24.8159008026,60,0.036,7.97e-09,336000000.0,132.0,15
143.0,24.83897895812,60,0.036,7.97e-09,336000000.0,132.0,15
144.0,24.86205711364,60,0.036,7.97e-09,336000000.0,132.0,15
145.0,24.88513526916,60,0.036,7.97e-09,336000000.0,132.0,15
146.0,24.90821342468,60,0.036,7.97e-09,336000000.0,132.0,15
147.0,24.9312915802,60,0.036,7.97e-09,336000000.0,132.0,15
148.0,24.95421829224,60,0.036,7.97e-09,336000000.0,132.0,15
149.0,24.97714500428,60,0.036,7.97e-09,336000000.0,132.0,15
150.0,25.00007171632,60,0.036,7.97e-09,336000000.0,132.0,15
151.0,25.02299842836,60,0.036,7.97e-09,336000000.0,132.0,15
152.0,25.0459251404,60,0.036,7.97e-09,336000000.0,132.0,15
153.0,25.06885185244,60,0.036,7.97e-09,336000000.0,132.0,15
154.0,25.09177856448,60,0.036,7.97e-09,336000000.0,132.0,15
155.0,25.11470527652,60,0.036,7.97e-09,336000000.0,132.0,15
156.0,25.13763198856,60,0.036,7.97e-09,336000000.0,132.0,15
157.0,25.1605587006,60,0.036,7.97e-09,336000000.0,132.0,15
158.0,25.18333530429,60,0.036,7.97e-09,336000000.0,132.0,15
159.0,25.20611190798,60,0.036,7.97e-09,336000000.0,132.0,15
160.0,25.22888851167,60,0.036,7.97e-09,336000000.0,132.0,15
161.0,25.25166511536,60,0.036,7.97e-09,336000000.0,132.0,15
162.0,25.27444171905,60,0.036,7.97e-09,336000000.0,132.0,15
163.0,25.29721832274,60,0.036,7.97e-09,336000000.0,132.0,15
164.0,25.31999492643,60,0.036,7.97e-09,336000000.0,132.0,15
165.0,25.34277153012,60,0.036,7.97e-09,336000000.0,132.0,15
166.0,25.36554813381,60,0.036,7.97e-09,336000000.0,132.0,15
167.0,25.3883247375,60,0.036,7.97e-09,336000000.0,132.0,15
168.0,25.41095237728,60,0.036,7.97e-09,336000000.0,132.0,15
169.0,25.43358001706,60,0.036,7.97e-09,336000000.0,132.0,15
170.0,25.45620765684,60,0.036,7.97e-09,336000000.0,132.0,15
171.0,25.47883529662,60,0.036,7.97e-09,336000000.0,132.0,15
172.0,25.5014629364,60,0.036,7.97e-09,336000000.0,132.0,15
173.0,25.52409057618,60,0.036,7.97e-09,336000000.0,132.0,15
174.0,25.54671821596,60,0.036,7.97e-09,336000000.0,132.0,15
175.0,25.56934585574,60,0.036,7.97e-09,336000000.0,132.0,15
176.0,25.59197349552,60,0.036,7.97e-09,336000000.0,132.0,15
177.0,25.6146011353,60,0.036,7.97e-09,336000000.0,132.0,15
178.0,25.63708076481,60,0.036,7.97e-09,336000000.0,132.0,15
179.0,25.65956039432,60,0.036,7.97e-09,336000000.0,132.0,15
180.0,25.68204002383,60,0.036,7.97e-09,336000000.0,132.0,15
181.0,25.70451965334,60,0.036,7.97e-09,336000000.0,132.0,15
182.0,25.72699928285,60,0.036,7.97e-09,336000000.0,132.0,15
183.0,25.74947891236,60,0.036,7.97e-09,336000000.0,132.0,15
184.0,25.77195854187,60,0.036,7.97e-09,336000000.0,132.0,15
185.0,25.79443817138,60,0.036,7.97e-09,336000000.0,132.0,15
186.0,25.81691780089,60,0.036,7.97e-09,336000000.0,132.0,15
187.0,25.8393974304,60,0.036,7.97e-09,336000000.0,132.0,15
188.0,25.86173000334,60,0.036,7.97e-09,336000000.0,132.0,15
189.0,25.88406257628,60,0.036,7.97e-09,336000000.0,132.0,15
190.0,25.90639514922,60,0.036,7.97e-09,336000000.0,132.0,15
191.0,25.92872772216,60,0.036,7.97e-09,336000000.0,132.0,15
192.0,25.9510602951,60,0.036,7.97e-09,336000000.0,132.0,15
193.0,25.97339286804,60,0.036,7.97e-09,336000000.0,132.0,15
194.0,25.99572544098,60,0.036,7.97e-09,336000000.0,132.0,15
195.0,26.01805801392,60,0.036,7.97e-09,336000000.0,132.0,15
196.0,26.04039058686,60,0.036,7.97e-09,336000000.0,132.0,15
197.0,26.0627231598,60,0.036,7.97e-09,336000000.0,132.0,15
198.0,26.08490962983,60,0.036,7.97e-09,336000000.0,132.0,15
199.0,26.10709609986,60,0.036,7.97e-09,336000000.0,132.0,15
200.0,26.12928256989,60,0.036,7.97e-09,336000000.0,132.0,15
201.0,26.15146903992,60,0.036,7.97e-09,336000000.0,132.0,15
202.0,26.17365550995,60,0.036,7.97e-09,336000000.0,132.0,15
203.0,26.19584197998,60,0.036,7.97e-09,336000000.0,132.0,15
204.0,26.21802845001,60,0.036,7.97e-09,336000000.0,132.0,15
205.0,26.24021492004,60,0.036,7.97e-09,336000000.0,132.0,15
206.0,26.26240139007,60,0.036,7.97e-09,336000000.0,132.0,15
207.0,26.2845878601,60,0.036,7.97e-09,336000000.0,132.0,15
208.0,26.30662937164,60,0.036,7.97e-09,336000000.0,132.0,15
209.0,26.32867088318,60,0.036,7.97e-09,336000000.0,132.0,15
210.0,26.35071239472,60,0.036,7.97e-09,336000000.0,132.0,15
211.0,26.37275390626,60,0.036,7.97e-09,336000000.0,132.0,15
212.0,26.3947954178,60,0.036,7.97e-09,336000000.0,132.0,15
213.0,26.41683692934,60,0.036,7.97e-09,336000000.0,132.0,15
214.0,26.43887844088,60,0.036,7.97e-09,336000000.0,132.0,15
215.0,26.46091995242,60,0.036,7.97e-09,336000000.0,132.0,15
216.0,26.48296146396,60,0.036,7.97e-09,336000000.0,132.0,15
217.0,26.5050029755,60,0.036,7.97e-09,336000000.0,132.0,15
218.0,26.52690029148,60,0.036,7.97e-09,336000000.0,132.0,15
219.0,26.54879760746,60,0.036,7.97e-09,336000000.0,132.0,15
220.0,26.57069492344,60,0.036,7.97e-09,336000000.0,132.0,15
221.0,26.59259223942,60,0.036,7.97e-09,336000000.0,132.0,15
222.0,26.6144895554,60,0.036,7.97e-09,336000000.0,132.0,15
223.0,26.63638687138,60,0.036,7.97e-09,336000000.0,132.0,15
224.0,26.65828418736,60,0.036,7.97e-09,336000000.0,132.0,15
225.0,26.68018150334,60,0.036,7.97e-09,336000000.0,132.0,15
226.0,26.70207881932,60,0.036,7.97e-09,336000000.0,132.0,15
227.0,26.7239761353,60,0.036,7.97e-09,336000000.0,132.0,15
228.0,26.74573040013,60,0.036,7.97e-09,336000000.0,132.0,15
229.0,26.76748466496,60,0.036,7.97e-09,336000000.0,132.0,15
230.0,26.78923892979,60,0.036,7.97e-09,336000000.0,132.0,15
231.0,26.81099319462,60,0.036,7.97e-09,336000000.0,132.0,15
232.0,26.83274745945,60,0.036,7.97e-09,336000000.0,132.0,15
233.0,26.85450172428,60,0.036,7.97e-09,336000000.0,132.0,15
234.0,26.87625598911,60,0.036,7.97e-09,336000000.0,132.0,15
235.0,26.89801025394,60,0.036,7.97e-09,336000000.0,132.0,15
236.0,26.91976451877,60,0.036,7.97e-09,336000000.0,132.0,15
237.0,26.9415187836,60,0.036,7.97e-09,336000000.0,132.0,15
238.0,26.96313076022,60,0.036,7.97e-09,336000000.0,132.0,15
239.0,26.98474273684,60,0.036,7.97e-09,336000000.0,132.0,15
240.0,27.00635471346,60,0.036,7.97e-09,336000000.0,132.0,15
241.0,27.02796669008,60,0.036,7.97e-09,336000000.0,132.0,15
242.0,27.0495786667,60,0.036,7.97e-09,336000000.0,132.0,15
243.0,27.07119064332,60,0.036,7.97e-09,336000000.0,132.0,15
244.0,27.09280261994,60,0.036,7.97e-09,336000000.0,132.0,15
245.0,27.11441459656,60,0.036,7.97e-09,336000000.0,132.0,15
246.0,27.13602657318,60,0.036,7.97e-09,336000000.0,132.0,15
247.0,27.1576385498,60,0.036,7.97e-09,336000000.0,132.0,15
248.0,27.17910938263,60,0.036,7.97e-09,336000000.0,132.0,15
249.0,27.20058021546,60,0.036,7.97e-09,336000000.0,132.0,15
250.0,27.22205104829,60,0.036,7.97e-09,336000000.0,132.0,15
251.0,27.24352188112,60,0.036,7.97e-09,336000000.0,132.0,15
252.0,27.26499271395,60,0.036,7.97e-09,336000000.0,132.0,15
253.0,27.28646354678,60,0.036,7.97e-09,336000000.0,132.0,15
254.0,27.30793437961,60,0.036,7.97e-09,336000000.0,132.0,15
255.0,27.32940521244,60,0.036,7.97e-09,336000000.0,132.0,15
256.0,27.35087604527,60,0.036,7.97e-09,336000000.0,132.0,15
257.0,27.3723468781,60,0.036,7.97e-09,336000000.0,132.0,15
258.0,27.39367713933,60,0.036,7.97e-09,336000000.0,132.0,15
259.0,27.41500740056,60,0.036,7.97e-09,336000000.0,132.0,15
260.0,27.43633766179,60,0.036,7.97e-09,336000000.0,132.0,15
261.0,27.45766792302,60,0.036,7.97e-09,336000000.0,132.0,15
262.0,27.47899818425,60,0.036,7.97e-09,336000000.0,132.0,15
263.0,27.50032844548,60,0.036,7.97e-09,336000000.0,132.0,15
264.0,27.52165870671,60,0.036,7.97e-09,336000000.0,132.0,15
265.0,27.54298896794,60,0.036,7.97e-09,336000000.0,132.0,15
266.0,27.56431922917,60,0.036,7.97e-09,336000000.0,132.0,15
267.0,27.5856494904,60,0.036,7.97e-09,336000000.0,132.0,15
268.0,27.60684032444,60,0.036,7.97e-09,336000000.0,132.0,15
269.0,27.62803115848,60,0.036,7.97e-09,336000000.0,132.0,15
270.0,27.64922199252,60,0.036,7.97e-09,336000000.0,132.0,15
271.0,27.67041282656,60,0.036,7.97e-09,336000000.0,132.0,15
272.0,27.6916036606,60,0.036,7.97e-09,336000000.0,132.0,15
273.0,27.71279449464,60,0.036,7.97e-09,336000000.0,132.0,15
274.0,27.73398532868,60,0.036,7.97e-09,336000000.0,132.0,15
275.0,27.75517616272,60,0.036,7.97e-09,336000000.0,132.0,15
276.0,27.77636699676,60,0.036,7.97e-09,336000000.0,132.0,15
277.0,27.7975578308,60,0.036,7.97e-09,336000000.0,132.0,15
278.0,27.81861019134,60,0.036,7.97e-09,336000000.0,132.0,15
279.0,27.83966255188,60,0.036,7.97e-09,336000000.0,132.0,15
280.0,27.86071491242,60,0.036,7.97e-09,336000000.0,132.0,15
281.0,27.88176727296,60,0.036,7.97e-09,336000000.0,132.0,15
282.0,27.9028196335,60,0.036,7.97e-09,336000000.0,132.0,15
283.0,27.92387199404,60,0.036,7.97e-09,336000000.0,132.0,15
284.0,27.94492435458,60,0.036,7.97e-09,336000000.0,132.0,15
285.0,27.96597671512,60,0.036,7.97e-09,336000000.0,132.0,15
286.0,27.98702907566,60,0.036,7.97e-09,336000000.0,132.0,15
287.0,28.0080814362,60,0.036,7.97e-09,336000000.0,132.0,15
288.0,28.02899627689,60,0.036,7.97e-09,336000000.0,132.0,15
289.0,28.04991111758,60,0.036,7.97e-09,336000000.0,132.0,15
290.0,28.07082595827,60,0.036,7.97e-09,336000000.0,132.0,15
291.0,28.09174079896,60,0.036,7.97e-09,336000000.0,132.0,15
292.0,28.11265563965,60,0.036,7.97e-09,336000000.0,132.0,15
293.0,28.13357048034,60,0.036,7.97e-09,336000000.0,132.0,15
294.0,28.15448532103,60,0.036,7.97e-09,336000000.0,132.0,15
295.0,28.17540016172,60,0.036,7.97e-09,336000000.0,132.0,15
296.0,28.19631500241,60,0.036,7.97e-09,336000000.0,132.0,15
297.0,28.2172298431,60,0.036,7.97e-09,336000000.0,132.0,15
298.0,28.23800773617,60,0.036,7.97e-09,336000000.0,132.0,15
299.0,28.25878562924,60,0.036,7.97e-09,336000000.0,132.0,15
300.0,28.27956352231,60,0.036,7.97e-09,336000000.0,132.0,15
301.0,28.30034141538,60,0.036,7.97e-09,336000000.0,132.0,15
302.0,28.32111930845,60,0.036,7.97e-09,336000000.0,132.0,15
303.0,28.34189720152,60,0.036,7.97e-09,336000000.0,132.0,15
304.0,28.36267509459,60,0.036,7.97e-09,336000000.0,132.0,15
305.0,28.38345298766,60,0.036,7.97e-09,336000000.0,132.0,15
306.0,28.40423088073,60,0.036,7.97e-09,336000000.0,132.0,15
307.0,28.4250087738,60,0.036,7.97e-09,336000000.0,132.0,15
308.0,28.44565105438,60,0.036,7.97e-09,336000000.0,132.0,15
309.0,28.46629333496,60,0.036,7.97e-09,336000000.0,132.0,15
310.0,28.48693561554,60,0.036,7.97e-09,336000000.0,132.0,15
311.0,28.50757789612,60,0.036,7.97e-09,336000000.0,132.0,15
312.0,28.5282201767,60,0.036,7.97e-09,336000000.0,132.0,15
313.0,28.54886245728,60,0.036,7.97e-09,336000000.0,132.0,15
314.0,28.56950473786,60,0.036,7.97e-09,336000000.0,132.0,15
315.0,28.59014701844,60,0.036,7.97e-09,336000000.0,132.0,15
316.0,28.61078929902,60,0.036,7.97e-09,336000000.0,132.0,15
317.0,28.6314315796,60,0.036,7.97e-09,336000000.0,132.0,15
318.0,28.65193881989,60,0.036,7.97e-09,336000000.0,132.0,15
319.0,28.67244606018,60,0.036,7.97e-09,336000000.0,132.0,15
320.0,28.69295330047,60,0.036,7.97e-09,336000000.0,132.0,15
321.0,28.71346054076,60,0.036,7.97e-09,336000000.0,132.0,15
322.0,28.73396778105,60,0.036,7.97e-09,336000000.0,132.0,15
323.0,28.75447502134,60,0.036,7.97e-09,336000000.0,132.0,15
324.0,28.77498226163,60,0.036,7.97e-09,336000000.0,132.0,15
325.0,28.79548950192,60,0.036,7.97e-09,336000000.0,132.0,15
326.0,28.81599674221,60,0.036,7.97e-09,336000000.0,132.0,15
327.0,28.8365039825,60,0.036,7.97e-09,336000000.0,132.0,15
328.0,28.85687713619,60,0.036,7.97e-09,336000000.0,132.0,15
329.0,28.87725028988,60,0.036,7.97e-09,336000000.0,132.0,15
330.0,28.89762344357,60,0.036,7.97e-09,336000000.0,132.0,15
