time,T_int,T_ext_1,Film_Coef,Density,Specific_Heat,Thermal_Conductivity,Radius
1.0,21.9995384216,22.88,0.036,2.61e-09,1021000000.0,225.0,25
2.0,21.9987430573,23.76,0.036,2.61e-09,1021000000.0,225.0,25
3.0,21.9975185394,24.64,0.036,2.61e-09,1021000000.0,225.0,25
4.0,21.9954099655,25.52,0.036,2.61e-09,1021000000.0,225.0,25
5.0,21.9933013916,26.4,0.036,2.61e-09,1021000000.0,225.0,25
6.0,21.99052762985,27.28,0.036,2.61e-09,1021000000.0,225.0,25
7.0,21.9877538681,28.16,0.036,2.61e-09,1021000000.0,225.0,25
8.0,21.98498010635,29.04,0.036,2.61e-09,1021000000.0,225.0,25
9.0,21.9822063446,29.92,0.036,2.61e-09,1021000000.0,225.0,25
10.0,21.9807596206625,30.8,0.036,2.61e-09,1021000000.0,225.0,25
11.0,21.979312896725,31.68,0.036,2.61e-09,1021000000.0,225.0,25
12.0,21.9778661727875,32.56,0.036,2.61e-09,1021000000.0,225.0,25
13.0,21.97641944885,33.44,0.036,2.61e-09,1021000000.0,225.0,25
14.0,21.9749727249125,34.32,0.036,2.61e-09,1021000000.0,225.0,25
15.0,21.973526000975,35.2,0.036,2.61e-09,1021000000.0,225.0,25
16.0,21.9720792770375,36.08,0.036,2.61e-09,1021000000.0,225.0,25
17.0,21.9706325531,36.96,0.036,2.61e-09,1021000000.0,225.0,25
18.0,21.97235374451,37.84,0.036,2.61e-09,1021000000.0,225.0,25
19.0,21.97407493592,38.72,0.036,2.61e-09,1021000000.0,225.0,25
20.0,21.97579612733,39.6,0.036,2.61e-09,1021000000.0,225.0,25
21.0,21.97751731874,40.48,0.036,2.61e-09,1021000000.0,225.0,25
22.0,21.97923851015,41.36,0.036,2.61e-09,1021000000.0,225.0,25
23.0,21.98095970156,42.24,0.036,2.61e-09,1021000000.0,225.0,25
24.0,21.98268089297,43.12,0.036,2.61e-09,1021000000.0,225.0,25
25.0,21.98440208438,44.0,0.036,2.61e-09,1021000000.0,225.0,25
26.0,21.98612327579,44.88,0.036,2.61e-09,1021000000.0,225.0,25
27.0,21.9878444672,45.76,0.036,2.61e-09,1021000000.0,225.0,25
28.0,21.99324016574,46.64,0.036,2.61e-09,1021000000.0,225.0,25
29.0,21.99863586428,47.52,0.036,2.61e-09,1021000000.0,225.0,25
30.0,22.00403156282,48.4,0.036,2.61e-09,1021000000.0,225.0,25
31.0,22.00942726136,49.28,0.036,2.61e-09,1021000000.0,225.0,25
32.0,22.0148229599,50.16,0.036,2.61e-09,1021000000.0,225.0,25
33.0,22.02021865844,51.04,0.036,2.61e-09,1021000000.0,225.0,25
34.0,22.02561435698,51.92,0.036,2.61e-09,1021000000.0,225.0,25
35.0,22.03101005552,52.8,0.036,2.61e-09,1021000000.0,225.0,25
36.0,22.03640575406,53.68,0.036,2.61e-09,1021000000.0,225.0,25
37.0,22.0418014526,54.56,0.036,2.61e-09,1021000000.0,225.0,25
38.0,22.05104274746,55.44,0.036,2.61e-09,1021000000.0,225.0,25
39.0,22.06028404232,56.32,0.036,2.61e-09,1021000000.0,225.0,25
40.0,22.06952533718,57.2,0.036,2.61e-09,1021000000.0,225.0,25
41.0,22.07876663204,58.08,0.036,2.61e-09,1021000000.0,225.0,25
42.0,22.0880079269,58.96,0.036,2.61e-09,1021000000.0,225.0,25
43.0,22.09724922176,59.84,0.036,2.61e-09,1021000000.0,225.0,25
44.0,22.10649051662,60.72,0.036,2.61e-09,1021000000.0,225.0,25
45.0,22.11573181148,61.6,0.036,2.61e-09,1021000000.0,225.0,25
46.0,22.12497310634,62.48,0.036,2.61e-09,1021000000.0,225.0,25
47.0,22.1342144012,63.36,0.036,2.61e-09,1021000000.0,225.0,25
48.0,22.14569149013,64.24,0.036,2.61e-09,1021000000.0,225.0,25
49.0,22.15716857906,65.12,0.036,2.61e-09,1021000000.0,225.0,25
50.0,22.16864566799,66.0,0.036,2.61e-09,1021000000.0,225.0,25
51.0,22.18012275692,62.94,0.036,2.61e-09,1021000000.0,225.0,25
52.0,22.19159984585,62.88,0.036,2.61e-09,1021000000.0,225.0,25
53.0,22.20307693478,62.82,0.036,2.61e-09,1021000000.0,225.0,25
54.0,22.21455402371,62.76,0.036,2.61e-09,1021000000.0,225.0,25
55.0,22.22603111264,62.7,0.036,2.61e-09,1021000000.0,225.0,25
56.0,22.23750820157,62.64,0.036,2.61e-09,1021000000.0,225.0,25
57.0,22.2489852905,62.58,0.036,2.61e-09,1021000000.0,225.0,25
58.0,22.26115989683,62.52,0.036,2.61e-09,1021000000.0,225.0,25
59.0,22.27333450316,62.46,0.036,2.61e-09,1021000000.0,225.0,25
60.0,22.28550910949,62.4,0.036,2.61e-09,1021000000.0,225.0,25
61.0,22.29768371582,62.34,0.036,2.61e-09,1021000000.0,225.0,25
62.0,22.30985832215,62.28,0.036,2.61e-09,1021000000.0,225.0,25
63.0,22.32203292848,62.22,0.036,2.61e-09,1021000000.0,225.0,25
64.0,22.33420753481,62.16,0.036,2.61e-09,1021000000.0,225.0,25
65.0,22.34638214114,62.1,0.036,2.61e-09,1021000000.0,225.0,25
66.0,22.35855674747,62.04,0.036,2.61e-09,1021000000.0,225.0,25
67.0,22.3707313538,61.98,0.036,2.61e-09,1021000000.0,225.0,25
68.0,22.38292102817,61.92,0.036,2.61e-09,1021000000.0,225.0,25
69.0,22.39511070254,61.86,0.036,2.61e-09,1021000000.0,225.0,25
70.0,22.40730037691,61.8,0.036,2.61e-09,1021000000.0,225.0,25
71.0,22.41949005128,61.74,0.036,2.61e-09,1021000000.0,225.0,25
72.0,22.43167972565,61.68,0.036,2.61e-09,1021000000.0,225.0,25
73.0,22.44386940002,61.62,0.036,2.61e-09,1021000000.0,225.0,25
74.0,22.45605907439,61.56,0.036,2.61e-09,1021000000.0,225.0,25
75.0,22.46824874876,61.5,0.036,2.61e-09,1021000000.0,225.0,25
76.0,22.48043842313,61.44,0.036,2.61e-09,1021000000.0,225.0,25
77.0,22.4926280975,61.38,0.036,2.61e-09,1021000000.0,225.0,25
78.0,22.50457801816,61.32,0.036,2.61e-09,1021000000.0,225.0,25
79.0,22.51652793882,61.26,0.036,2.61e-09,1021000000.0,225.0,25
80.0,22.52847785948,61.2,0.036,2.61e-09,1021000000.0,225.0,25
81.0,22.54042778014,61.14,0.036,2.61e-09,1021000000.0,225.0,25
82.0,22.5523777008,61.08,0.036,2.61e-09,1021000000.0,225.0,25
83.0,22.56432762146,61.02,0.036,2.61e-09,1021000000.0,225.0,25
84.0,22.57627754212,60.96,0.036,2.61e-09,1021000000.0,225.0,25
85.0,22.58822746278,60.9,0.036,2.61e-09,1021000000.0,225.0,25
86.0,22.60017738344,60.84,0.036,2.61e-09,1021000000.0,225.0,25
87.0,22.6121273041,60.78,0.036,2.61e-09,1021000000.0,225.0,25
88.0,22.62374515536,60.72,0.036,2.61e-09,1021000000.0,225.0,25
89.0,22.63536300662,60.66,0.036,2.61e-09,1021000000.0,225.0,25
90.0,22.64698085788,60.6,0.036,2.61e-09,1021000000.0,225.0,25
91.0,22.65859870914,60.54,0.036,2.61e-09,1021000000.0,225.0,25
92.0,22.6702165604,60.48,0.036,2.61e-09,1021000000.0,225.0,25
93.0,22.68183441166,60.42,0.036,2.61e-09,1021000000.0,225.0,25
94.0,22.69345226292,60.36,0.036,2.61e-09,1021000000.0,225.0,25
95.0,22.70507011418,60.3,0.036,2.61e-09,1021000000.0,225.0,25
96.0,22.71668796544,60.24,0.036,2.61e-09,1021000000.0,225.0,25
97.0,22.7283058167,60.18,0.036,2.61e-09,1021000000.0,225.0,25
98.0,22.739696312,60.12,0.036,2.61e-09,1021000000.0,225.0,25
99.0,22.7510868073,60.06,0.036,2.61e-09,1021000000.0,225.0,25
100.0,22.7624773026,60.0,0.036,2.61e-09,1021000000.0,225.0,25
101.0,22.7738677979,60,0.036,2.61e-09,1021000000.0,225.0,25
102.0,22.7852582932,60,0.036,2.61e-09,1021000000.0,225.0,25
103.0,22.7966487885,60,0.036,2.61e-09,1021000000.0,225.0,25
104.0,22.8080392838,60,0.036,2.61e-09,1021000000.0,225.0,25
105.0,22.8194297791,60,0.036,2.61e-09,1021000000.0,225.0,25
106.0,22.8308202744,60,0.036,2.61e-09,1021000000.0,225.0,25
107.0,22.8422107697,60,0.036,2.61e-09,1021000000.0,225.0,25
108.0,22.85349006657,60,0.036,2.61e-09,1021000000.0,225.0,25
109.0,22.86476936344,60,0.036,2.61e-09,1021000000.0,225.0,25
110.0,22.87604866031,60,0.036,2.61e-09,1021000000.0,225.0,25
111.0,22.88732795718,60,0.036,2.61e-09,1021000000.0,225.0,25
112.0,22.89860725405,60,0.036,2.61e-09,1021000000.0,225.0,25
113.0,22.90988655092,60,0.036,2.61e-09,1021000000.0,225.0,25
114.0,22.92116584779,60,0.036,2.61e-09,1021000000.0,225.0,25
115.0,22.93244514466,60,0.036,2.61e-09,1021000000.0,225.0,25
116.0,22.94372444153,60,0.036,2.61e-09,1021000000.0,225.0,25
117.0,22.9550037384,60,0.036,2.61e-09,1021000000.0,225.0,25
118.0,22.96622257232,60,0.036,2.61e-09,1021000000.0,225.0,25
119.0,22.97744140624,60,0.036,2.61e-09,1021000000.0,225.0,25
120.0,22.98866024016,60,0.036,2.61e-09,1021000000.0,225.0,25
121.0,22.99987907408,60,0.036,2.61e-09,1021000000.0,225.0,25
122.0,23.011097908,60,0.036,2.61e-09,1021000000.0,225.0,25
123.0,23.02231674192,60,0.036,2.61e-09,1021000000.0,225.0,25
124.0,23.03353557584,60,0.036,2.61e-09,1021000000.0,225.0,25
125.0,23.04475440976,60,0.036,2.61e-09,1021000000.0,225.0,25
126.0,23.05597324368,60,0.036,2.61e-09,1021000000.0,225.0,25
127.0,23.0671920776,60,0.036,2.61e-09,1021000000.0,225.0,25
128.0,23.07836952206,60,0.036,2.61e-09,1021000000.0,225.0,25
129.0,23.08954696652,60,0.036,2.61e-09,1021000000.0,225.0,25
130.0,23.10072441098,60,0.036,2.61e-09,1021000000.0,225.0,25
131.0,23.11190185544,60,0.036,2.61e-09,1021000000.0,225.0,25
132.0,23.1230792999,60,0.036,2.61e-09,1021000000.0,225.0,25
133.0,23.13425674436,60,0.036,2.61e-09,1021000000.0,225.0,25
134.0,23.14543418882,60,0.036,2.61e-09,1021000000.0,225.0,25
135.0,23.15661163328,60,0.036,2.61e-09,1021000000.0,225.0,25
136.0,23.16778907774,60,0.036,2.61e-09,1021000000.0,225.0,25
137.0,23.1789665222,60,0.036,2.61e-09,1021000000.0,225.0,25
138.0,23.19010791777,60,0.036,2.61e-09,1021000000.0,225.0,25
139.0,23.20124931334,60,0.036,2.61e-09,1021000000.0,225.0,25
140.0,23.21239070891,60,0.036,2.61e-09,1021000000.0,225.0,25
141.0,23.22353210448,60,0.036,2.61e-09,1021000000.0,225.0,25
142.0,23.23467350005,60,0.036,2.61e-09,1021000000.0,225.0,25
143.0,23.24581489562,60,0.036,2.61e-09,1021000000.0,225.0,25
144.0,23.25695629119,60,0.036,2.61e-09,1021000000.0,225.0,25
145.0,23.26809768676,60,0.036,2.61e-09,1021000000.0,225.0,25
146.0,23.27923908233,60,0.036,2.61e-09,1021000000.0,225.0,25
147.0,23.2903804779,60,0.036,2.61e-09,1021000000.0,225.0,25
148.0,23.30148849487,60,0.036,2.61e-09,1021000000.0,225.0,25
149.0,23.31259651184,60,0.036,2.61e-09,1021000000.0,225.0,25
150.0,23.32370452881,60,0.036,2.61e-09,1021000000.0,225.0,25
151.0,23.33481254578,60,0.036,2.61e-09,1021000000.0,225.0,25
152.0,23.34592056275,60,0.036,2.61e-09,1021000000.0,225.0,25
153.0,23.35702857972,60,0.036,2.61e-09,1021000000.0,225.0,25
154.0,23.36813659669,60,0.036,2.61e-09,1021000000.0,225.0,25
155.0,23.37924461366,60,0.036,2.61e-09,1021000000.0,225.0,25
156.0,23.39035263063,60,0.036,2.61e-09,1021000000.0,225.0,25
157.0,23.4014606476,60,0.036,2.61e-09,1021000000.0,225.0,25
158.0,23.41253528596,60,0.036,2.61e-09,1021000000.0,225.0,25
159.0,23.42360992432,60,0.036,2.61e-09,1021000000.0,225.0,25
160.0,23.43468456268,60,0.036,2.61e-09,1021000000.0,225.0,25
161.0,23.44575920104,60,0.036,2.61e-09,1021000000.0,225.0,25
162.0,23.4568338394,60,0.036,2.61e-09,1021000000.0,225.0,25
163.0,23.46790847776,60,0.036,2.61e-09,1021000000.0,225.0,25
164.0,23.47898311612,60,0.036,2.61e-09,1021000000.0,225.0,25
165.0,23.49005775448,60,0.036,2.61e-09,1021000000.0,225.0,25
166.0,23.50113239284,60,0.036,2.61e-09,1021000000.0,225.0,25
167.0,23.5122070312,60,0.036,2.61e-09,1021000000.0,225.0,25
168.0,23.52324867244,60,0.036,2.61e-09,1021000000.0,225.0,25
169.0,23.53429031368,60,0.036,2.61e-09,1021000000.0,225.0,25
170.0,23.54533195492,60,0.036,2.61e-09,1021000000.0,225.0,25
171.0,23.55637359616,60,0.036,2.61e-09,1021000000.0,225.0,25
172.0,23.5674152374,60,0.036,2.61e-09,1021000000.0,225.0,25
173.0,23.57845687864,60,0.036,2.61e-09,1021000000.0,225.0,25
174.0,23.58949851988,60,0.036,2.61e-09,1021000000.0,225.0,25
175.0,23.60054016112,60,0.036,2.61e-09,1021000000.0,225.0,25
176.0,23.61158180236,60,0.036,2.61e-09,1021000000.0,225.0,25
177.0,23.6226234436,60,0.036,2.61e-09,1021000000.0,225.0,25
178.0,23.63363227844,60,0.036,2.61e-09,1021000000.0,225.0,25
179.0,23.64464111328,60,0.036,2.61e-09,1021000000.0,225.0,25
180.0,23.65564994812,60,0.036,2.61e-09,1021000000.0,225.0,25
181.0,23.66665878296,60,0.036,2.61e-09,1021000000.0,225.0,25
182.0,23.6776676178,60,0.036,2.61e-09,1021000000.0,225.0,25
183.0,23.68867645264,60,0.036,2.61e-09,1021000000.0,225.0,25
184.0,23.69968528748,60,0.036,2.61e-09,1021000000.0,225.0,25
185.0,23.71069412232,60,0.036,2.61e-09,1021000000.0,225.0,25
186.0,23.72170295716,60,0.036,2.61e-09,1021000000.0,225.0,25
187.0,23.732711792,60,0.036,2.61e-09,1021000000.0,225.0,25
188.0,23.74368762971,60,0.036,2.61e-09,1021000000.0,225.0,25
189.0,23.75466346742,60,0.036,2.61e-09,1021000000.0,225.0,25
190.0,23.76563930513,60,0.036,2.61e-09,1021000000.0,225.0,25
191.0,23.77661514284,60,0.036,2.61e-09,1021000000.0,225.0,25
192.0,23.78759098055,60,0.036,2.61e-09,1021000000.0,225.0,25
193.0,23.79856681826,60,0.036,2.61e-09,1021000000.0,225.0,25
194.0,23.80954265597,60,0.036,2.61e-09,1021000000.0,225.0,25
195.0,23.82051849368,60,0.036,2.61e-09,1021000000.0,225.0,25
196.0,23.83149433139,60,0.036,2.61e-09,1021000000.0,225.0,25
197.0,23.8424701691,60,0.036,2.61e-09,1021000000.0,225.0,25
198.0,23.85341300967,60,0.036,2.61e-09,1021000000.0,225.0,25
199.0,23.86435585024,60,0.036,2.61e-09,1021000000.0,225.0,25
200.0,23.87529869081,60,0.036,2.61e-09,1021000000.0,225.0,25
201.0,23.88624153138,60,0.036,2.61e-09,1021000000.0,225.0,25
202.0,23.89718437195,60,0.036,2.61e-09,1021000000.0,225.0,25
203.0,23.90812721252,60,0.036,2.61e-09,1021000000.0,225.0,25
204.0,23.91907005309,60,0.036,2.61e-09,1021000000.0,225.0,25
205.0,23.93001289366,60,0.036,2.61e-09,1021000000.0,225.0,25
206.0,23.94095573423,60,0.036,2.61e-09,1021000000.0,225.0,25
207.0,23.9518985748,60,0.036,2.61e-09,1021000000.0,225.0,25
208.0,23.96280860898,60,0.036,2.61e-09,1021000000.0,225.0,25
209.0,23.97371864316,60,0.036,2.61e-09,1021000000.0,225.0,25
210.0,23.98462867734,60,0.036,2.61e-09,1021000000.0,225.0,25
211.0,23.99553871152,60,0.036,2.61e-09,1021000000.0,225.0,25
212.0,24.0064487457,60,0.036,2.61e-09,1021000000.0,225.0,25
213.0,24.01735877988,60,0.036,2.61e-09,1021000000.0,225.0,25
214.0,24.02826881406,60,0.036,2.61e-09,1021000000.0,225.0,25
215.0,24.03917884824,60,0.036,2.61e-09,1021000000.0,225.0,25
216.0,24.05008888242,60,0.036,2.61e-09,1021000000.0,225.0,25
217.0,24.0609989166,60,0.036,2.61e-09,1021000000.0,225.0,25
218.0,24.07187614439,60,0.036,2.61e-09,1021000000.0,225.0,25
219.0,24.08275337218,60,0.036,2.61e-09,1021000000.0,225.0,25
220.0,24.09363059997,60,0.036,2.61e-09,1021000000.0,225.0,25
221.0,24.10450782776,60,0.036,2.61e-09,1021000000.0,225.0,25
222.0,24.11538505555,60,0.036,2.61e-09,1021000000.0,225.0,25
223.0,24.12626228334,60,0.036,2.61e-09,1021000000.0,225.0,25
224.0,24.13713951113,60,0.036,2.61e-09,1021000000.0,225.0,25
225.0,24.14801673892,60,0.036,2.61e-09,1021000000.0,225.0,25
226.0,24.15889396671,60,0.036,2.61e-09,1021000000.0,225.0,25
227.0,24.1697711945,60,0.036,2.61e-09,1021000000.0,225.0,25
228.0,24.18061542515,60,0.036,2.61e-09,1021000000.0,225.0,25
229.0,24.1914596558,60,0.036,2.61e-09,1021000000.0,225.0,25
230.0,24.20230388645,60,0.036,2.61e-09,1021000000.0,225.0,25
231.0,24.2131481171,60,0.036,2.61e-09,1021000000.0,225.0,25
232.0,24.22399234775,60,0.036,2.61e-09,1021000000.0,225.0,25
233.0,24.2348365784,60,0.036,2.61e-09,1021000000.0,225.0,25
234.0,24.24568080905,60,0.036,2.61e-09,1021000000.0,225.0,25
235.0,24.2565250397,60,0.036,2.61e-09,1021000000.0,225.0,25
236.0,24.26736927035,60,0.036,2.61e-09,1021000000.0,225.0,25
237.0,24.278213501,60,0.036,2.61e-09,1021000000.0,225.0,25
238.0,24.28902511599,60,0.036,2.61e-09,1021000000.0,225.0,25
239.0,24.29983673098,60,0.036,2.61e-09,1021000000.0,225.0,25
240.0,24.31064834597,60,0.036,2.61e-09,1021000000.0,225.0,25
241.0,24.32145996096,60,0.036,2.61e-09,1021000000.0,225.0,25
242.0,24.33227157595,60,0.036,2.61e-09,1021000000.0,225.0,25
243.0,24.34308319094,60,0.036,2.61e-09,1021000000.0,225.0,25
244.0,24.35389480593,60,0.036,2.61e-09,1021000000.0,225.0,25
245.0,24.36470642092,60,0.036,2.61e-09,1021000000.0,225.0,25
246.0,24.37551803591,60,0.036,2.61e-09,1021000000.0,225.0,25
247.0,24.3863296509,60,0.036,2.61e-09,1021000000.0,225.0,25
248.0,24.39710865023,60,0.036,2.61e-09,1021000000.0,225.0,25
249.0,24.40788764956,60,0.036,2.61e-09,1021000000.0,225.0,25
250.0,24.41866664889,60,0.036,2.61e-09,1021000000.0,225.0,25
251.0,24.42944564822,60,0.036,2.61e-09,1021000000.0,225.0,25
252.0,24.44022464755,60,0.036,2.61e-09,1021000000.0,225.0,25
253.0,24.45100364688,60,0.036,2.61e-09,1021000000.0,225.0,25
254.0,24.46178264621,60,0.036,2.61e-09,1021000000.0,225.0,25
255.0,24.47256164554,60,0.036,2.61e-09,1021000000.0,225.0,25
256.0,24.48334064487,60,0.036,2.61e-09,1021000000.0,225.0,25
257.0,24.4941196442,60,0.036,2.61e-09,1021000000.0,225.0,25
258.0,24.50486602786,60,0.036,2.61e-09,1021000000.0,225.0,25
259.0,24.51561241152,60,0.036,2.61e-09,1021000000.0,225.0,25
260.0,24.52635879518,60,0.036,2.61e-09,1021000000.0,225.0,25
261.0,24.53710517884,60,0.036,2.61e-09,1021000000.0,225.0,25
262.0,24.5478515625,60,0.036,2.61e-09,1021000000.0,225.0,25
263.0,24.55859794616,60,0.036,2.61e-09,1021000000.0,225.0,25
264.0,24.56934432982,60,0.036,2.61e-09,1021000000.0,225.0,25
265.0,24.58009071348,60,0.036,2.61e-09,1021000000.0,225.0,25
266.0,24.59083709714,60,0.036,2.61e-09,1021000000.0,225.0,25
267.0,24.6015834808,60,0.036,2.61e-09,1021000000.0,225.0,25
268.0,24.61229743954,60,0.036,2.61e-09,1021000000.0,225.0,25
269.0,24.62301139828,60,0.036,2.61e-09,1021000000.0,225.0,25
270.0,24.63372535702,60,0.036,2.61e-09,1021000000.0,225.0,25
271.0,24.64443931576,60,0.036,2.61e-09,1021000000.0,225.0,25
272.0,24.6551532745,60,0.036,2.61e-09,1021000000.0,225.0,25
273.0,24.66586723324,60,0.036,2.61e-09,1021000000.0,225.0,25
274.0,24.67658119198,60,0.036,2.61e-09,1021000000.0,225.0,25
275.0,24.68729515072,60,0.036,2.61e-09,1021000000.0,225.0,25
276.0,24.69800910946,60,0.036,2.61e-09,1021000000.0,225.0,25
277.0,24.7087230682,60,0.036,2.61e-09,1021000000.0,225.0,25
278.0,24.71940460202,60,0.036,2.61e-09,1021000000.0,225.0,25
279.0,24.73008613584,60,0.036,2.61e-09,1021000000.0,225.0,25
280.0,24.74076766966,60,0.036,2.61e-09,1021000000.0,225.0,25
281.0,24.75144920348,60,0.036,2.61e-09,1021000000.0,225.0,25
282.0,24.7621307373,60,0.036,2.61e-09,1021000000.0,225.0,25
283.0,24.77281227112,60,0.036,2.61e-09,1021000000.0,225.0,25
284.0,24.78349380494,60,0.036,2.61e-09,1021000000.0,225.0,25
285.0,24.79417533876,60,0.036,2.61e-09,1021000000.0,225.0,25
286.0,24.80485687258,60,0.036,2.61e-09,1021000000.0,225.0,25
287.0,24.8155384064,60,0.036,2.61e-09,1021000000.0,225.0,25
288.0,24.82618770602,60,0.036,2.61e-09,1021000000.0,225.0,25
289.0,24.83683700564,60,0.036,2.61e-09,1021000000.0,225.0,25
290.0,24.84748630526,60,0.036,2.61e-09,1021000000.0,225.0,25
291.0,24.85813560488,60,0.036,2.61e-09,1021000000.0,225.0,25
292.0,24.8687849045,60,0.036,2.61e-09,1021000000.0,225.0,25
293.0,24.87943420412,60,0.036,2.61e-09,1021000000.0,225.0,25
294.0,24.89008350374,60,0.036,2.61e-09,1021000000.0,225.0,25
295.0,24.90073280336,60,0.036,2.61e-09,1021000000.0,225.0,25
296.0,24.91138210298,60,0.036,2.61e-09,1021000000.0,225.0,25
297.0,24.9220314026,60,0.036,2.61e-09,1021000000.0,225.0,25
298.0,24.93264827729,60,0.036,2.61e-09,1021000000.0,225.0,25
299.0,24.94326515198,60,0.036,2.61e-09,1021000000.0,225.0,25
300.0,24.95388202667,60,0.036,2.61e-09,1021000000.0,225.0,25
301.0,24.96449890136,60,0.036,2.61e-09,1021000000.0,225.0,25
302.0,24.97511577605,60,0.036,2.61e-09,1021000000.0,225.0,25
303.0,24.98573265074,60,0.036,2.61e-09,1021000000.0,225.0,25
304.0,24.99634952543,60,0.036,2.61e-09,1021000000.0,225.0,25
305.0,25.00696640012,60,0.036,2.61e-09,1021000000.0,225.0,25
306.0,25.01758327481,60,0.036,2.61e-09,1021000000.0,225.0,25
307.0,25.0282001495,60,0.036,2.61e-09,1021000000.0,225.0,25
308.0,25.03878498074,60,0.036,2.61e-09,1021000000.0,225.0,25
309.0,25.04936981198,60,0.036,2.61e-09,1021000000.0,225.0,25
310.0,25.05995464322,60,0.036,2.61e-09,1021000000.0,225.0,25
311.0,25.07053947446,60,0.036,2.61e-09,1021000000.0,225.0,25
312.0,25.0811243057,60,0.036,2.61e-09,1021000000.0,225.0,25
313.0,25.09170913694,60,0.036,2.61e-09,1021000000.0,225.0,25
314.0,25.10229396818,60,0.036,2.61e-09,1021000000.0,225.0,25
315.0,25.11287879942,60,0.036,2.61e-09,1021000000.0,225.0,25
316.0,25.12346363066,60,0.036,2.61e-09,1021000000.0,225.0,25
317.0,25.1340484619,60,0.036,2.61e-09,1021000000.0,225.0,25
318.0,25.14460144042,60,0.036,2.61e-09,1021000000.0,225.0,25
319.0,25.15515441894,60,0.036,2.61e-09,1021000000.0,225.0,25
320.0,25.16570739746,60,0.036,2.61e-09,1021000000.0,225.0,25
321.0,25.17626037598,60,0.036,2.61e-09,1021000000.0,225.0,25
322.0,25.1868133545,60,0.036,2.61e-09,1021000000.0,225.0,25
323.0,25.19736633302,60,0.036,2.61e-09,1021000000.0,225.0,25
324.0,25.20791931154,60,0.036,2.61e-09,1021000000.0,225.0,25
