time,T_int,T_ext_1,Film_Coef,Density,Specific_Heat,Thermal_Conductivity,Radius
1.0,21.9961624146,22.88,0.036,2.71e-09,621000000.0,285.0,25
2.0,21.9891395569,23.76,0.036,2.71e-09,621000000.0,285.0,25
3.0,21.9801330566,24.64,0.036,2.71e-09,621000000.0,285.0,25
4.0,21.9704170227,25.52,0.036,2.71e-09,621000000.0,285.0,25
5.0,21.9607009888,26.4,0.036,2.71e-09,621000000.0,285.0,25
6.0,21.9531540871,27.28,0.036,2.71e-09,621000000.0,285.0,25
7.0,21.9456071854,28.16,0.036,2.71e-09,621000000.0,285.0,25
8.0,21.9380602837,29.04,0.036,2.71e-09,621000000.0,285.0,25
9.0,21.930513382,29.92,0.036,2.71e-09,621000000.0,285.0,25
10.0,21.9293642044375,30.8,0.036,2.71e-09,621000000.0,285.0,25
11.0,21.928215026875,31.68,0.036,2.71e-09,621000000.0,285.0,25
12.0,21.9270658493125,32.56,0.036,2.71e-09,621000000.0,285.0,25
13.0,21.92591667175,33.44,0.036,2.71e-09,621000000.0,285.0,25
14.0,21.9247674941875,34.32,0.036,2.71e-09,621000000.0,285.0,25
15.0,21.923618316625,35.2,0.036,2.71e-09,621000000.0,285.0,25
16.0,21.9224691390625,36.08,0.036,2.71e-09,621000000.0,285.0,25
17.0,21.9213199615,36.96,0.036,2.71e-09,621000000.0,285.0,25
18.0,21.92855300899,37.84,0.036,2.71e-09,621000000.0,285.0,25
19.0,21.93578605648,38.72,0.036,2.71e-09,621000000.0,285.0,25
20.0,21.94301910397,39.6,0.036,2.71e-09,621000000.0,285.0,25
21.0,21.95025215146,40.48,0.036,2.71e-09,621000000.0,285.0,25
22.0,21.95748519895,41.36,0.036,2.71e-09,621000000.0,285.0,25
23.0,21.96471824644,42.24,0.036,2.71e-09,621000000.0,285.0,25
24.0,21.97195129393,43.12,0.036,2.71e-09,621000000.0,285.0,25
25.0,21.97918434142,44.0,0.036,2.71e-09,621000000.0,285.0,25
26.0,21.98641738891,44.88,0.036,2.71e-09,621000000.0,285.0,25
27.0,21.9936504364,45.76,0.036,2.71e-09,621000000.0,285.0,25
28.0,22.00928821564,46.64,0.036,2.71e-09,621000000.0,285.0,25
29.0,22.02492599488,47.52,0.036,2.71e-09,621000000.0,285.0,25
30.0,22.04056377412,48.4,0.036,2.71e-09,621000000.0,285.0,25
31.0,22.05620155336,49.28,0.036,2.71e-09,621000000.0,285.0,25
32.0,22.0718393326,50.16,0.036,2.71e-09,621000000.0,285.0,25
33.0,22.08747711184,51.04,0.036,2.71e-09,621000000.0,285.0,25
34.0,22.10311489108,51.92,0.036,2.71e-09,621000000.0,285.0,25
35.0,22.11875267032,52.8,0.036,2.71e-09,621000000.0,285.0,25
36.0,22.13439044956,53.68,0.036,2.71e-09,621000000.0,285.0,25
37.0,22.1500282288,54.56,0.036,2.71e-09,621000000.0,285.0,25
38.0,22.17403450016,55.44,0.036,2.71e-09,621000000.0,285.0,25
39.0,22.19804077152,56.32,0.036,2.71e-09,621000000.0,285.0,25
40.0,22.22204704288,57.2,0.036,2.71e-09,621000000.0,285.0,25
41.0,22.24605331424,58.08,0.036,2.71e-09,621000000.0,285.0,25
42.0,22.2700595856,58.96,0.036,2.71e-09,621000000.0,285.0,25
43.0,22.29406585696,59.84,0.036,2.71e-09,621000000.0,285.0,25
44.0,22.31807212832,60.72,0.036,2.71e-09,621000000.0,285.0,25
45.0,22.34207839968,61.6,0.036,2.71e-09,621000000.0,285.0,25
46.0,22.36608467104,62.48,0.036,2.71e-09,621000000.0,285.0,25
47.0,22.3900909424,63.36,0.036,2.71e-09,621000000.0,285.0,25
48.0,22.41699085237,64.24,0.036,2.71e-09,621000000.0,285.0,25
49.0,22.44389076234,65.12,0.036,2.71e-09,621000000.0,285.0,25
50.0,22.47079067231,66.0,0.036,2.71e-09,621000000.0,285.0,25
51.0,22.49769058228,62.94,0.036,2.71e-09,621000000.0,285.0,25
52.0,22.52459049225,62.88,0.036,2.71e-09,621000000.0,285.0,25
53.0,22.55149040222,62.82,0.036,2.71e-09,621000000.0,285.0,25
54.0,22.57839031219,62.76,0.036,2.71e-09,621000000.0,285.0,25
55.0,22.60529022216,62.7,0.036,2.71e-09,621000000.0,285.0,25
56.0,22.63219013213,62.64,0.036,2.71e-09,621000000.0,285.0,25
57.0,22.6590900421,62.58,0.036,2.71e-09,621000000.0,285.0,25
58.0,22.68564643859,62.52,0.036,2.71e-09,621000000.0,285.0,25
59.0,22.71220283508,62.46,0.036,2.71e-09,621000000.0,285.0,25
60.0,22.73875923157,62.4,0.036,2.71e-09,621000000.0,285.0,25
61.0,22.76531562806,62.34,0.036,2.71e-09,621000000.0,285.0,25
62.0,22.79187202455,62.28,0.036,2.71e-09,621000000.0,285.0,25
63.0,22.81842842104,62.22,0.036,2.71e-09,621000000.0,285.0,25
64.0,22.84498481753,62.16,0.036,2.71e-09,621000000.0,285.0,25
65.0,22.87154121402,62.1,0.036,2.71e-09,621000000.0,285.0,25
66.0,22.89809761051,62.04,0.036,2.71e-09,621000000.0,285.0,25
67.0,22.924654007,61.98,0.036,2.71e-09,621000000.0,285.0,25
68.0,22.95036125187,61.92,0.036,2.71e-09,621000000.0,285.0,25
69.0,22.97606849674,61.86,0.036,2.71e-09,621000000.0,285.0,25
70.0,23.00177574161,61.8,0.036,2.71e-09,621000000.0,285.0,25
71.0,23.02748298648,61.74,0.036,2.71e-09,621000000.0,285.0,25
72.0,23.05319023135,61.68,0.036,2.71e-09,621000000.0,285.0,25
73.0,23.07889747622,61.62,0.036,2.71e-09,621000000.0,285.0,25
74.0,23.10460472109,61.56,0.036,2.71e-09,621000000.0,285.0,25
75.0,23.13031196596,61.5,0.036,2.71e-09,621000000.0,285.0,25
76.0,23.15601921083,61.44,0.036,2.71e-09,621000000.0,285.0,25
77.0,23.1817264557,61.38,0.036,2.71e-09,621000000.0,285.0,25
78.0,23.20651626588,61.32,0.036,2.71e-09,621000000.0,285.0,25
79.0,23.23130607606,61.26,0.036,2.71e-09,621000000.0,285.0,25
80.0,23.25609588624,61.2,0.036,2.71e-09,621000000.0,285.0,25
81.0,23.28088569642,61.14,0.036,2.71e-09,621000000.0,285.0,25
82.0,23.3056755066,61.08,0.036,2.71e-09,621000000.0,285.0,25
83.0,23.33046531678,61.02,0.036,2.71e-09,621000000.0,285.0,25
84.0,23.35525512696,60.96,0.036,2.71e-09,621000000.0,285.0,25
85.0,23.38004493714,60.9,0.036,2.71e-09,621000000.0,285.0,25
86.0,23.40483474732,60.84,0.036,2.71e-09,621000000.0,285.0,25
87.0,23.4296245575,60.78,0.036,2.71e-09,621000000.0,285.0,25
88.0,23.45348968506,60.72,0.036,2.71e-09,621000000.0,285.0,25
89.0,23.47735481262,60.66,0.036,2.71e-09,621000000.0,285.0,25
90.0,23.50121994018,60.6,0.036,2.71e-09,621000000.0,285.0,25
91.0,23.52508506774,60.54,0.036,2.71e-09,621000000.0,285.0,25
92.0,23.5489501953,60.48,0.036,2.71e-09,621000000.0,285.0,25
93.0,23.57281532286,60.42,0.036,2.71e-09,621000000.0,285.0,25
94.0,23.59668045042,60.36,0.036,2.71e-09,621000000.0,285.0,25
95.0,23.62054557798,60.3,0.036,2.71e-09,621000000.0,285.0,25
96.0,23.64441070554,60.24,0.036,2.71e-09,621000000.0,285.0,25
97.0,23.6682758331,60.18,0.036,2.71e-09,621000000.0,285.0,25
98.0,23.69167098996,60.12,0.036,2.71e-09,621000000.0,285.0,25
99.0,23.71506614682,60.06,0.036,2.71e-09,621000000.0,285.0,25
100.0,23.73846130368,60.0,0.036,2.71e-09,621000000.0,285.0,25
101.0,23.76185646054,60,0.036,2.71e-09,621000000.0,285.0,25
102.0,23.7852516174,60,0.036,2.71e-09,621000000.0,285.0,25
103.0,23.80864677426,60,0.036,2.71e-09,621000000.0,285.0,25
104.0,23.83204193112,60,0.036,2.71e-09,621000000.0,285.0,25
105.0,23.85543708798,60,0.036,2.71e-09,621000000.0,285.0,25
106.0,23.87883224484,60,0.036,2.71e-09,621000000.0,285.0,25
107.0,23.9022274017,60,0.036,2.71e-09,621000000.0,285.0,25
108.0,23.92542285916,60,0.036,2.71e-09,621000000.0,285.0,25
109.0,23.94861831662,60,0.036,2.71e-09,621000000.0,285.0,25
110.0,23.97181377408,60,0.036,2.71e-09,621000000.0,285.0,25
111.0,23.99500923154,60,0.036,2.71e-09,621000000.0,285.0,25
112.0,24.018204689,60,0.036,2.71e-09,621000000.0,285.0,25
113.0,24.04140014646,60,0.036,2.71e-09,621000000.0,285.0,25
114.0,24.06459560392,60,0.036,2.71e-09,621000000.0,285.0,25
115.0,24.08779106138,60,0.036,2.71e-09,621000000.0,285.0,25
116.0,24.11098651884,60,0.036,2.71e-09,621000000.0,285.0,25
117.0,24.1341819763,60,0.036,2.71e-09,621000000.0,285.0,25
118.0,24.15722103117,60,0.036,2.71e-09,621000000.0,285.0,25
119.0,24.18026008604,60,0.036,2.71e-09,621000000.0,285.0,25
120.0,24.20329914091,60,0.036,2.71e-09,621000000.0,285.0,25
121.0,24.22633819578,60,0.036,2.71e-09,621000000.0,285.0,25
122.0,24.24937725065,60,0.036,2.71e-09,621000000.0,285.0,25
123.0,24.27241630552,60,0.036,2.71e-09,621000000.0,285.0,25
124.0,24.29545536039,60,0.036,2.71e-09,621000000.0,285.0,25
125.0,24.31849441526,60,0.036,2.71e-09,621000000.0,285.0,25
126.0,24.34153347013,60,0.036,2.71e-09,621000000.0,285.0,25
127.0,24.364572525,60,0.036,2.71e-09,621000000.0,285.0,25
128.0,24.38746223448,60,0.036,2.71e-09,621000000.0,285.0,25
129.0,24.41035194396,60,0.036,2.71e-09,621000000.0,285.0,25
130.0,24.43324165344,60,0.036,2.71e-09,621000000.0,285.0,25
131.0,24.45613136292,60,0.036,2.71e-09,621000000.0,285.0,25
132.0,24.4790210724,60,0.036,2.71e-09,621000000.0,285.0,25
133.0,24.50191078188,60,0.036,2.71e-09,621000000.0,285.0,25
134.0,24.52480049136,60,0.036,2.71e-09,621000000.0,285.0,25
135.0,24.54769020084,60,0.036,2.71e-09,621000000.0,285.0,25
136.0,24.57057991032,60,0.036,2.71e-09,621000000.0,285.0,25
137.0,24.5934696198,60,0.036,2.71e-09,621000000.0,285.0,25
138.0,24.61621189122,60,0.036,2.71e-09,621000000.0,285.0,25
139.0,24.63895416264,60,0.036,2.71e-09,621000000.0,285.0,25
140.0,24.66169643406,60,0.036,2.71e-09,621000000.0,285.0,25
141.0,24.68443870548,60,0.036,2.71e-09,621000000.0,285.0,25
142.0,24.7071809769,60,0.036,2.71e-09,621000000.0,285.0,25
143.0,24.72992324832,60,0.036,2.71e-09,621000000.0,285.0,25
144.0,24.75266551974,60,0.036,2.71e-09,621000000.0,285.0,25
145.0,24.77540779116,60,0.036,2.71e-09,621000000.0,285.0,25
146.0,24.79815006258,60,0.036,2.71e-09,621000000.0,285.0,25
147.0,24.820892334,60,0.036,2.71e-09,621000000.0,285.0,25
148.0,24.84348831178,60,0.036,2.71e-09,621000000.0,285.0,25
149.0,24.86608428956,60,0.036,2.71e-09,621000000.0,285.0,25
150.0,24.88868026734,60,0.036,2.71e-09,621000000.0,285.0,25
151.0,24.91127624512,60,0.036,2.71e-09,621000000.0,285.0,25
152.0,24.9338722229,60,0.036,2.71e-09,621000000.0,285.0,25
153.0,24.95646820068,60,0.036,2.71e-09,621000000.0,285.0,25
154.0,24.97906417846,60,0.036,2.71e-09,621000000.0,285.0,25
155.0,25.00166015624,60,0.036,2.71e-09,621000000.0,285.0,25
156.0,25.02425613402,60,0.036,2.71e-09,621000000.0,285.0,25
157.0,25.0468521118,60,0.036,2.71e-09,621000000.0,285.0,25
158.0,25.06930313109,60,0.036,2.71e-09,621000000.0,285.0,25
159.0,25.09175415038,60,0.036,2.71e-09,621000000.0,285.0,25
160.0,25.11420516967,60,0.036,2.71e-09,621000000.0,285.0,25
161.0,25.13665618896,60,0.036,2.71e-09,621000000.0,285.0,25
162.0,25.15910720825,60,0.036,2.71e-09,621000000.0,285.0,25
163.0,25.18155822754,60,0.036,2.71e-09,621000000.0,285.0,25
164.0,25.20400924683,60,0.036,2.71e-09,621000000.0,285.0,25
165.0,25.22646026612,60,0.036,2.71e-09,621000000.0,285.0,25
166.0,25.24891128541,60,0.036,2.71e-09,621000000.0,285.0,25
167.0,25.2713623047,60,0.036,2.71e-09,621000000.0,285.0,25
168.0,25.29366893769,60,0.036,2.71e-09,621000000.0,285.0,25
169.0,25.31597557068,60,0.036,2.71e-09,621000000.0,285.0,25
170.0,25.33828220367,60,0.036,2.71e-09,621000000.0,285.0,25
171.0,25.36058883666,60,0.036,2.71e-09,621000000.0,285.0,25
172.0,25.38289546965,60,0.036,2.71e-09,621000000.0,285.0,25
173.0,25.40520210264,60,0.036,2.71e-09,621000000.0,285.0,25
174.0,25.42750873563,60,0.036,2.71e-09,621000000.0,285.0,25
175.0,25.44981536862,60,0.036,2.71e-09,621000000.0,285.0,25
176.0,25.47212200161,60,0.036,2.71e-09,621000000.0,285.0,25
177.0,25.4944286346,60,0.036,2.71e-09,621000000.0,285.0,25
178.0,25.51659183498,60,0.036,2.71e-09,621000000.0,285.0,25
179.0,25.53875503536,60,0.036,2.71e-09,621000000.0,285.0,25
180.0,25.56091823574,60,0.036,2.71e-09,621000000.0,285.0,25
181.0,25.58308143612,60,0.036,2.71e-09,621000000.0,285.0,25
182.0,25.6052446365,60,0.036,2.71e-09,621000000.0,285.0,25
183.0,25.62740783688,60,0.036,2.71e-09,621000000.0,285.0,25
184.0,25.64957103726,60,0.036,2.71e-09,621000000.0,285.0,25
185.0,25.67173423764,60,0.036,2.71e-09,621000000.0,285.0,25
186.0,25.69389743802,60,0.036,2.71e-09,621000000.0,285.0,25
187.0,25.7160606384,60,0.036,2.71e-09,621000000.0,285.0,25
188.0,25.73808174131,60,0.036,2.71e-09,621000000.0,285.0,25
189.0,25.76010284422,60,0.036,2.71e-09,621000000.0,285.0,25
190.0,25.78212394713,60,0.036,2.71e-09,621000000.0,285.0,25
191.0,25.80414505004,60,0.036,2.71e-09,621000000.0,285.0,25
192.0,25.82616615295,60,0.036,2.71e-09,621000000.0,285.0,25
193.0,25.84818725586,60,0.036,2.71e-09,621000000.0,285.0,25
194.0,25.87020835877,60,0.036,2.71e-09,621000000.0,285.0,25
195.0,25.89222946168,60,0.036,2.71e-09,621000000.0,285.0,25
196.0,25.91425056459,60,0.036,2.71e-09,621000000.0,285.0,25
197.0,25.9362716675,60,0.036,2.71e-09,621000000.0,285.0,25
198.0,25.9581510544,60,0.036,2.71e-09,621000000.0,285.0,25
199.0,25.9800304413,60,0.036,2.71e-09,621000000.0,285.0,25
200.0,26.0019098282,60,0.036,2.71e-09,621000000.0,285.0,25
201.0,26.0237892151,60,0.036,2.71e-09,621000000.0,285.0,25
202.0,26.045668602,60,0.036,2.71e-09,621000000.0,285.0,25
203.0,26.0675479889,60,0.036,2.71e-09,621000000.0,285.0,25
204.0,26.0894273758,60,0.036,2.71e-09,621000000.0,285.0,25
205.0,26.1113067627,60,0.036,2.71e-09,621000000.0,285.0,25
206.0,26.1331861496,60,0.036,2.71e-09,621000000.0,285.0,25
207.0,26.1550655365,60,0.036,2.71e-09,621000000.0,285.0,25
208.0,26.17680454254,60,0.036,2.71e-09,621000000.0,285.0,25
209.0,26.19854354858,60,0.036,2.71e-09,621000000.0,285.0,25
210.0,26.22028255462,60,0.036,2.71e-09,621000000.0,285.0,25
211.0,26.24202156066,60,0.036,2.71e-09,621000000.0,285.0,25
212.0,26.2637605667,60,0.036,2.71e-09,621000000.0,285.0,25
213.0,26.28549957274,60,0.036,2.71e-09,621000000.0,285.0,25
214.0,26.30723857878,60,0.036,2.71e-09,621000000.0,285.0,25
215.0,26.32897758482,60,0.036,2.71e-09,621000000.0,285.0,25
216.0,26.35071659086,60,0.036,2.71e-09,621000000.0,285.0,25
217.0,26.3724555969,60,0.036,2.71e-09,621000000.0,285.0,25
218.0,26.39405498502,60,0.036,2.71e-09,621000000.0,285.0,25
219.0,26.41565437314,60,0.036,2.71e-09,621000000.0,285.0,25
220.0,26.43725376126,60,0.036,2.71e-09,621000000.0,285.0,25
221.0,26.45885314938,60,0.036,2.71e-09,621000000.0,285.0,25
222.0,26.4804525375,60,0.036,2.71e-09,621000000.0,285.0,25
223.0,26.50205192562,60,0.036,2.71e-09,621000000.0,285.0,25
224.0,26.52365131374,60,0.036,2.71e-09,621000000.0,285.0,25
225.0,26.54525070186,60,0.036,2.71e-09,621000000.0,285.0,25
226.0,26.56685008998,60,0.036,2.71e-09,621000000.0,285.0,25
227.0,26.5884494781,60,0.036,2.71e-09,621000000.0,285.0,25
228.0,26.60991020198,60,0.036,2.71e-09,621000000.0,285.0,25
229.0,26.63137092586,60,0.036,2.71e-09,621000000.0,285.0,25
230.0,26.65283164974,60,0.036,2.71e-09,621000000.0,285.0,25
231.0,26.67429237362,60,0.036,2.71e-09,621000000.0,285.0,25
232.0,26.6957530975,60,0.036,2.71e-09,621000000.0,285.0,25
233.0,26.71721382138,60,0.036,2.71e-09,621000000.0,285.0,25
234.0,26.73867454526,60,0.036,2.71e-09,621000000.0,285.0,25
235.0,26.76013526914,60,0.036,2.71e-09,621000000.0,285.0,25
236.0,26.78159599302,60,0.036,2.71e-09,621000000.0,285.0,25
237.0,26.8030567169,60,0.036,2.71e-09,621000000.0,285.0,25
238.0,26.82437953947,60,0.036,2.71e-09,621000000.0,285.0,25
239.0,26.84570236204,60,0.036,2.71e-09,621000000.0,285.0,25
240.0,26.86702518461,60,0.036,2.71e-09,621000000.0,285.0,25
241.0,26.88834800718,60,0.036,2.71e-09,621000000.0,285.0,25
242.0,26.90967082975,60,0.036,2.71e-09,621000000.0,285.0,25
243.0,26.93099365232,60,0.036,2.71e-09,621000000.0,285.0,25
244.0,26.95231647489,60,0.036,2.71e-09,621000000.0,285.0,25
245.0,26.97363929746,60,0.036,2.71e-09,621000000.0,285.0,25
246.0,26.99496212003,60,0.036,2.71e-09,621000000.0,285.0,25
247.0,27.0162849426,60,0.036,2.71e-09,621000000.0,285.0,25
248.0,27.03747062681,60,0.036,2.71e-09,621000000.0,285.0,25
249.0,27.05865631102,60,0.036,2.71e-09,621000000.0,285.0,25
250.0,27.07984199523,60,0.036,2.71e-09,621000000.0,285.0,25
251.0,27.10102767944,60,0.036,2.71e-09,621000000.0,285.0,25
252.0,27.12221336365,60,0.036,2.71e-09,621000000.0,285.0,25
253.0,27.14339904786,60,0.036,2.71e-09,621000000.0,285.0,25
254.0,27.16458473207,60,0.036,2.71e-09,621000000.0,285.0,25
255.0,27.18577041628,60,0.036,2.71e-09,621000000.0,285.0,25
256.0,27.20695610049,60,0.036,2.71e-09,621000000.0,285.0,25
257.0,27.2281417847,60,0.036,2.71e-09,621000000.0,285.0,25
258.0,27.24919166568,60,0.036,2.71e-09,621000000.0,285.0,25
259.0,27.27024154666,60,0.036,2.71e-09,621000000.0,285.0,25
260.0,27.29129142764,60,0.036,2.71e-09,621000000.0,285.0,25
261.0,27.31234130862,60,0.036,2.71e-09,621000000.0,285.0,25
262.0,27.3333911896,60,0.036,2.71e-09,621000000.0,285.0,25
263.0,27.35444107058,60,0.036,2.71e-09,621000000.0,285.0,25
264.0,27.37549095156,60,0.036,2.71e-09,621000000.0,285.0,25
265.0,27.39654083254,60,0.036,2.71e-09,621000000.0,285.0,25
266.0,27.41759071352,60,0.036,2.71e-09,621000000.0,285.0,25
267.0,27.4386405945,60,0.036,2.71e-09,621000000.0,285.0,25
268.0,27.45955505373,60,0.036,2.71e-09,621000000.0,285.0,25
269.0,27.48046951296,60,0.036,2.71e-09,621000000.0,285.0,25
270.0,27.50138397219,60,0.036,2.71e-09,621000000.0,285.0,25
271.0,27.52229843142,60,0.036,2.71e-09,621000000.0,285.0,25
272.0,27.54321289065,60,0.036,2.71e-09,621000000.0,285.0,25
273.0,27.56412734988,60,0.036,2.71e-09,621000000.0,285.0,25
274.0,27.58504180911,60,0.036,2.71e-09,621000000.0,285.0,25
275.0,27.60595626834,60,0.036,2.71e-09,621000000.0,285.0,25
276.0,27.62687072757,60,0.036,2.71e-09,621000000.0,285.0,25
277.0,27.6477851868,60,0.036,2.71e-09,621000000.0,285.0,25
278.0,27.66856536868,60,0.036,2.71e-09,621000000.0,285.0,25
279.0,27.68934555056,60,0.036,2.71e-09,621000000.0,285.0,25
280.0,27.71012573244,60,0.036,2.71e-09,621000000.0,285.0,25
281.0,27.73090591432,60,0.036,2.71e-09,621000000.0,285.0,25
282.0,27.7516860962,60,0.036,2.71e-09,621000000.0,285.0,25
283.0,27.77246627808,60,0.036,2.71e-09,621000000.0,285.0,25
284.0,27.79324645996,60,0.036,2.71e-09,621000000.0,285.0,25
285.0,27.81402664184,60,0.036,2.71e-09,621000000.0,285.0,25
286.0,27.83480682372,60,0.036,2.71e-09,621000000.0,285.0,25
287.0,27.8555870056,60,0.036,2.71e-09,621000000.0,285.0,25
288.0,27.87623386382,60,0.036,2.71e-09,621000000.0,285.0,25
289.0,27.89688072204,60,0.036,2.71e-09,621000000.0,285.0,25
290.0,27.91752758026,60,0.036,2.71e-09,621000000.0,285.0,25
291.0,27.93817443848,60,0.036,2.71e-09,621000000.0,285.0,25
292.0,27.9588212967,60,0.036,2.71e-09,621000000.0,285.0,25
293.0,27.97946815492,60,0.036,2.71e-09,621000000.0,285.0,25
294.0,28.00011501314,60,0.036,2.71e-09,621000000.0,285.0,25
295.0,28.02076187136,60,0.036,2.71e-09,621000000.0,285.0,25
296.0,28.04140872958,60,0.036,2.71e-09,621000000.0,285.0,25
297.0,28.0620555878,60,0.036,2.71e-09,621000000.0,285.0,25
298.0,28.08256969455,60,0.036,2.71e-09,621000000.0,285.0,25
299.0,28.1030838013,60,0.036,2.71e-09,621000000.0,285.0,25
300.0,28.12359790805,60,0.036,2.71e-09,621000000.0,285.0,25
301.0,28.1441120148,60,0.036,2.71e-09,621000000.0,285.0,25
302.0,28.16462612155,60,0.036,2.71e-09,621000000.0,285.0,25
303.0,28.1851402283,60,0.036,2.71e-09,621000000.0,285.0,25
304.0,28.20565433505,60,0.036,2.71e-09,621000000.0,285.0,25
305.0,28.2261684418,60,0.036,2.71e-09,621000000.0,285.0,25
306.0,28.24668254855,60,0.036,2.71e-09,621000000.0,285.0,25
307.0,28.2671966553,60,0.036,2.71e-09,621000000.0,285.0,25
308.0,28.28757896426,60,0.036,2.71e-09,621000000.0,285.0,25
309.0,28.30796127322,60,0.036,2.71e-09,621000000.0,285.0,25
310.0,28.32834358218,60,0.036,2.71e-09,621000000.0,285.0,25
311.0,28.34872589114,60,0.036,2.71e-09,621000000.0,285.0,25
312.0,28.3691082001,60,0.036,2.71e-09,621000000.0,285.0,25
313.0,28.38949050906,60,0.036,2.71e-09,621000000.0,285.0,25
314.0,28.40987281802,60,0.036,2.71e-09,621000000.0,285.0,25
315.0,28.43025512698,60,0.036,2.71e-09,621000000.0,285.0,25
316.0,28.45063743594,60,0.036,2.71e-09,621000000.0,285.0,25
317.0,28.4710197449,60,0.036,2.71e-09,621000000.0,285.0,25
318.0,28.49127120974,60,0.036,2.71e-09,621000000.0,285.0,25
319.0,28.51152267458,60,0.036,2.71e-09,621000000.0,285.0,25
320.0,28.53177413942,60,0.036,2.71e-09,621000000.0,285.0,25
321.0,28.55202560426,60,0.036,2.71e-09,621000000.0,285.0,25
322.0,28.5722770691,60,0.036,2.71e-09,621000000.0,285.0,25
323.0,28.59252853394,60,0.036,2.71e-09,621000000.0,285.0,25
324.0,28.61277999878,60,0.036,2.71e-09,621000000.0,285.0,25
325.0,28.63303146362,60,0.036,2.71e-09,621000000.0,285.0,25
326.0,28.65328292846,60,0.036,2.71e-09,621000000.0,285.0,25
327.0,28.6735343933,60,0.036,2.71e-09,621000000.0,285.0,25
328.0,28.69365577697,60,0.036,2.71e-09,621000000.0,285.0,25
329.0,28.71377716064,60,0.036,2.71e-09,621000000.0,285.0,25
330.0,28.73389854431,60,0.036,2.71e-09,621000000.0,285.0,25
