time,T_int,T_ext_1,Film_Coef,Density,Specific_Heat,Thermal_Conductivity,Radius
1.0,21.9837913513,22.88,0.036,7.77e-09,536000000.0,72.0,15
2.0,21.9704399109,23.76,0.036,7.77e-09,536000000.0,72.0,15
3.0,21.9592628479,24.64,0.036,7.77e-09,536000000.0,72.0,15
4.0,21.9510116577,25.52,0.036,7.77e-09,536000000.0,72.0,15
5.0,21.9427604675,26.4,0.036,7.77e-09,536000000.0,72.0,15
6.0,21.938387393925,27.28,0.036,7.77e-09,536000000.0,72.0,15
7.0,21.93401432035,28.16,0.036,7.77e-09,536000000.0,72.0,15
8.0,21.929641246775,29.04,0.036,7.77e-09,536000000.0,72.0,15
9.0,21.9252681732,29.92,0.036,7.77e-09,536000000.0,72.0,15
10.0,21.92674326895,30.8,0.036,7.77e-09,536000000.0,72.0,15
11.0,21.9282183647,31.68,0.036,7.77e-09,536000000.0,72.0,15
12.0,21.92969346045,32.56,0.036,7.77e-09,536000000.0,72.0,15
13.0,21.9311685562,33.44,0.036,7.77e-09,536000000.0,72.0,15
14.0,21.93264365195,34.32,0.036,7.77e-09,536000000.0,72.0,15
15.0,21.9341187477,35.2,0.036,7.77e-09,536000000.0,72.0,15
16.0,21.93559384345,36.08,0.036,7.77e-09,536000000.0,72.0,15
17.0,21.9370689392,36.96,0.036,7.77e-09,536000000.0,72.0,15
18.0,21.94508037566,37.84,0.036,7.77e-09,536000000.0,72.0,15
19.0,21.95309181212,38.72,0.036,7.77e-09,536000000.0,72.0,15
20.0,21.96110324858,39.6,0.036,7.77e-09,536000000.0,72.0,15
21.0,21.96911468504,40.48,0.036,7.77e-09,536000000.0,72.0,15
22.0,21.9771261215,41.36,0.036,7.77e-09,536000000.0,72.0,15
23.0,21.98513755796,42.24,0.036,7.77e-09,536000000.0,72.0,15
24.0,21.99314899442,43.12,0.036,7.77e-09,536000000.0,72.0,15
25.0,22.00116043088,44.0,0.036,7.77e-09,536000000.0,72.0,15
26.0,22.00917186734,44.88,0.036,7.77e-09,536000000.0,72.0,15
27.0,22.0171833038,45.76,0.036,7.77e-09,536000000.0,72.0,15
28.0,22.03147659299,46.64,0.036,7.77e-09,536000000.0,72.0,15
29.0,22.04576988218,47.52,0.036,7.77e-09,536000000.0,72.0,15
30.0,22.06006317137,48.4,0.036,7.77e-09,536000000.0,72.0,15
31.0,22.07435646056,49.28,0.036,7.77e-09,536000000.0,72.0,15
32.0,22.08864974975,50.16,0.036,7.77e-09,536000000.0,72.0,15
33.0,22.10294303894,51.04,0.036,7.77e-09,536000000.0,72.0,15
34.0,22.11723632813,51.92,0.036,7.77e-09,536000000.0,72.0,15
35.0,22.13152961732,52.8,0.036,7.77e-09,536000000.0,72.0,15
36.0,22.14582290651,53.68,0.036,7.77e-09,536000000.0,72.0,15
37.0,22.1601161957,54.56,0.036,7.77e-09,536000000.0,72.0,15
38.0,22.18059234621,55.44,0.036,7.77e-09,536000000.0,72.0,15
39.0,22.20106849672,56.32,0.036,7.77e-09,536000000.0,72.0,15
40.0,22.22154464723,57.2,0.036,7.77e-09,536000000.0,72.0,15
41.0,22.24202079774,58.08,0.036,7.77e-09,536000000.0,72.0,15
42.0,22.26249694825,58.96,0.036,7.77e-09,536000000.0,72.0,15
43.0,22.28297309876,59.84,0.036,7.77e-09,536000000.0,72.0,15
44.0,22.30344924927,60.72,0.036,7.77e-09,536000000.0,72.0,15
45.0,22.32392539978,61.6,0.036,7.77e-09,536000000.0,72.0,15
46.0,22.34440155029,62.48,0.036,7.77e-09,536000000.0,72.0,15
47.0,22.3648777008,63.36,0.036,7.77e-09,536000000.0,72.0,15
48.0,22.38578968048,64.24,0.036,7.77e-09,536000000.0,72.0,15
49.0,22.40670166016,65.12,0.036,7.77e-09,536000000.0,72.0,15
50.0,22.42761363984,66.0,0.036,7.77e-09,536000000.0,72.0,15
51.0,22.44852561952,62.94,0.036,7.77e-09,536000000.0,72.0,15
52.0,22.4694375992,62.88,0.036,7.77e-09,536000000.0,72.0,15
53.0,22.49034957888,62.82,0.036,7.77e-09,536000000.0,72.0,15
54.0,22.51126155856,62.76,0.036,7.77e-09,536000000.0,72.0,15
55.0,22.53217353824,62.7,0.036,7.77e-09,536000000.0,72.0,15
56.0,22.55308551792,62.64,0.036,7.77e-09,536000000.0,72.0,15
57.0,22.5739974976,62.58,0.036,7.77e-09,536000000.0,72.0,15
58.0,22.5936080933,62.52,0.036,7.77e-09,536000000.0,72.0,15
59.0,22.613218689,62.46,0.036,7.77e-09,536000000.0,72.0,15
60.0,22.6328292847,62.4,0.036,7.77e-09,536000000.0,72.0,15
61.0,22.6524398804,62.34,0.036,7.77e-09,536000000.0,72.0,15
62.0,22.6720504761,62.28,0.036,7.77e-09,536000000.0,72.0,15
63.0,22.6916610718,62.22,0.036,7.77e-09,536000000.0,72.0,15
64.0,22.7112716675,62.16,0.036,7.77e-09,536000000.0,72.0,15
65.0,22.7308822632,62.1,0.036,7.77e-09,536000000.0,72.0,15
66.0,22.7504928589,62.04,0.036,7.77e-09,536000000.0,72.0,15
67.0,22.7701034546,61.98,0.036,7.77e-09,536000000.0,72.0,15
68.0,22.78890075685,61.92,0.036,7.77e-09,536000000.0,72.0,15
69.0,22.8076980591,61.86,0.036,7.77e-09,536000000.0,72.0,15
70.0,22.82649536135,61.8,0.036,7.77e-09,536000000.0,72.0,15
71.0,22.8452926636,61.74,0.036,7.77e-09,536000000.0,72.0,15
72.0,22.86408996585,61.68,0.036,7.77e-09,536000000.0,72.0,15
73.0,22.8828872681,61.62,0.036,7.77e-09,536000000.0,72.0,15
74.0,22.90168457035,61.56,0.036,7.77e-09,536000000.0,72.0,15
75.0,22.9204818726,61.5,0.036,7.77e-09,536000000.0,72.0,15
76.0,22.93927917485,61.44,0.036,7.77e-09,536000000.0,72.0,15
77.0,22.9580764771,61.38,0.036,7.77e-09,536000000.0,72.0,15
78.0,22.9761919022,61.32,0.036,7.77e-09,536000000.0,72.0,15
79.0,22.9943073273,61.26,0.036,7.77e-09,536000000.0,72.0,15
80.0,23.0124227524,61.2,0.036,7.77e-09,536000000.0,72.0,15
81.0,23.0305381775,61.14,0.036,7.77e-09,536000000.0,72.0,15
82.0,23.0486536026,61.08,0.036,7.77e-09,536000000.0,72.0,15
83.0,23.0667690277,61.02,0.036,7.77e-09,536000000.0,72.0,15
84.0,23.0848844528,60.96,0.036,7.77e-09,536000000.0,72.0,15
85.0,23.1029998779,60.9,0.036,7.77e-09,536000000.0,72.0,15
86.0,23.121115303,60.84,0.036,7.77e-09,536000000.0,72.0,15
87.0,23.1392307281,60.78,0.036,7.77e-09,536000000.0,72.0,15
88.0,23.15670413967,60.72,0.036,7.77e-09,536000000.0,72.0,15
89.0,23.17417755124,60.66,0.036,7.77e-09,536000000.0,72.0,15
90.0,23.19165096281,60.6,0.036,7.77e-09,536000000.0,72.0,15
91.0,23.20912437438,60.54,0.036,7.77e-09,536000000.0,72.0,15
92.0,23.22659778595,60.48,0.036,7.77e-09,536000000.0,72.0,15
93.0,23.24407119752,60.42,0.036,7.77e-09,536000000.0,72.0,15
94.0,23.26154460909,60.36,0.036,7.77e-09,536000000.0,72.0,15
95.0,23.27901802066,60.3,0.036,7.77e-09,536000000.0,72.0,15
96.0,23.29649143223,60.24,0.036,7.77e-09,536000000.0,72.0,15
97.0,23.3139648438,60.18,0.036,7.77e-09,536000000.0,72.0,15
98.0,23.33128280644,60.12,0.036,7.77e-09,536000000.0,72.0,15
99.0,23.34860076908,60.06,0.036,7.77e-09,536000000.0,72.0,15
100.0,23.36591873172,60.0,0.036,7.77e-09,536000000.0,72.0,15
101.0,23.38323669436,60,0.036,7.77e-09,536000000.0,72.0,15
102.0,23.400554657,60,0.036,7.77e-09,536000000.0,72.0,15
103.0,23.41787261964,60,0.036,7.77e-09,536000000.0,72.0,15
104.0,23.43519058228,60,0.036,7.77e-09,536000000.0,72.0,15
105.0,23.45250854492,60,0.036,7.77e-09,536000000.0,72.0,15
106.0,23.46982650756,60,0.036,7.77e-09,536000000.0,72.0,15
107.0,23.4871444702,60,0.036,7.77e-09,536000000.0,72.0,15
108.0,23.50445137023,60,0.036,7.77e-09,536000000.0,72.0,15
109.0,23.52175827026,60,0.036,7.77e-09,536000000.0,72.0,15
110.0,23.53906517029,60,0.036,7.77e-09,536000000.0,72.0,15
111.0,23.55637207032,60,0.036,7.77e-09,536000000.0,72.0,15
112.0,23.57367897035,60,0.036,7.77e-09,536000000.0,72.0,15
113.0,23.59098587038,60,0.036,7.77e-09,536000000.0,72.0,15
114.0,23.60829277041,60,0.036,7.77e-09,536000000.0,72.0,15
115.0,23.62559967044,60,0.036,7.77e-09,536000000.0,72.0,15
116.0,23.64290657047,60,0.036,7.77e-09,536000000.0,72.0,15
117.0,23.6602134705,60,0.036,7.77e-09,536000000.0,72.0,15
118.0,23.67746639255,60,0.036,7.77e-09,536000000.0,72.0,15
119.0,23.6947193146,60,0.036,7.77e-09,536000000.0,72.0,15
120.0,23.71197223665,60,0.036,7.77e-09,536000000.0,72.0,15
121.0,23.7292251587,60,0.036,7.77e-09,536000000.0,72.0,15
122.0,23.74647808075,60,0.036,7.77e-09,536000000.0,72.0,15
123.0,23.7637310028,60,0.036,7.77e-09,536000000.0,72.0,15
124.0,23.78098392485,60,0.036,7.77e-09,536000000.0,72.0,15
125.0,23.7982368469,60,0.036,7.77e-09,536000000.0,72.0,15
126.0,23.81548976895,60,0.036,7.77e-09,536000000.0,72.0,15
127.0,23.832742691,60,0.036,7.77e-09,536000000.0,72.0,15
128.0,23.84992790219,60,0.036,7.77e-09,536000000.0,72.0,15
129.0,23.86711311338,60,0.036,7.77e-09,536000000.0,72.0,15
130.0,23.88429832457,60,0.036,7.77e-09,536000000.0,72.0,15
131.0,23.90148353576,60,0.036,7.77e-09,536000000.0,72.0,15
132.0,23.91866874695,60,0.036,7.77e-09,536000000.0,72.0,15
133.0,23.93585395814,60,0.036,7.77e-09,536000000.0,72.0,15
134.0,23.95303916933,60,0.036,7.77e-09,536000000.0,72.0,15
135.0,23.97022438052,60,0.036,7.77e-09,536000000.0,72.0,15
136.0,23.98740959171,60,0.036,7.77e-09,536000000.0,72.0,15
137.0,24.0045948029,60,0.036,7.77e-09,536000000.0,72.0,15
138.0,24.02170639042,60,0.036,7.77e-09,536000000.0,72.0,15
139.0,24.03881797794,60,0.036,7.77e-09,536000000.0,72.0,15
140.0,24.05592956546,60,0.036,7.77e-09,536000000.0,72.0,15
141.0,24.07304115298,60,0.036,7.77e-09,536000000.0,72.0,15
142.0,24.0901527405,60,0.036,7.77e-09,536000000.0,72.0,15
143.0,24.10726432802,60,0.036,7.77e-09,536000000.0,72.0,15
144.0,24.12437591554,60,0.036,7.77e-09,536000000.0,72.0,15
145.0,24.14148750306,60,0.036,7.77e-09,536000000.0,72.0,15
146.0,24.15859909058,60,0.036,7.77e-09,536000000.0,72.0,15
147.0,24.1757106781,60,0.036,7.77e-09,536000000.0,72.0,15
148.0,24.19274635315,60,0.036,7.77e-09,536000000.0,72.0,15
149.0,24.2097820282,60,0.036,7.77e-09,536000000.0,72.0,15
150.0,24.22681770325,60,0.036,7.77e-09,536000000.0,72.0,15
151.0,24.2438533783,60,0.036,7.77e-09,536000000.0,72.0,15
152.0,24.26088905335,60,0.036,7.77e-09,536000000.0,72.0,15
153.0,24.2779247284,60,0.036,7.77e-09,536000000.0,72.0,15
154.0,24.29496040345,60,0.036,7.77e-09,536000000.0,72.0,15
155.0,24.3119960785,60,0.036,7.77e-09,536000000.0,72.0,15
156.0,24.32903175355,60,0.036,7.77e-09,536000000.0,72.0,15
157.0,24.3460674286,60,0.036,7.77e-09,536000000.0,72.0,15
158.0,24.36302566529,60,0.036,7.77e-09,536000000.0,72.0,15
159.0,24.37998390198,60,0.036,7.77e-09,536000000.0,72.0,15
160.0,24.39694213867,60,0.036,7.77e-09,536000000.0,72.0,15
161.0,24.41390037536,60,0.036,7.77e-09,536000000.0,72.0,15
162.0,24.43085861205,60,0.036,7.77e-09,536000000.0,72.0,15
163.0,24.44781684874,60,0.036,7.77e-09,536000000.0,72.0,15
164.0,24.46477508543,60,0.036,7.77e-09,536000000.0,72.0,15
165.0,24.48173332212,60,0.036,7.77e-09,536000000.0,72.0,15
166.0,24.49869155881,60,0.036,7.77e-09,536000000.0,72.0,15
167.0,24.5156497955,60,0.036,7.77e-09,536000000.0,72.0,15
168.0,24.53252964017,60,0.036,7.77e-09,536000000.0,72.0,15
169.0,24.54940948484,60,0.036,7.77e-09,536000000.0,72.0,15
170.0,24.56628932951,60,0.036,7.77e-09,536000000.0,72.0,15
171.0,24.58316917418,60,0.036,7.77e-09,536000000.0,72.0,15
172.0,24.60004901885,60,0.036,7.77e-09,536000000.0,72.0,15
173.0,24.61692886352,60,0.036,7.77e-09,536000000.0,72.0,15
174.0,24.63380870819,60,0.036,7.77e-09,536000000.0,72.0,15
175.0,24.65068855286,60,0.036,7.77e-09,536000000.0,72.0,15
176.0,24.66756839753,60,0.036,7.77e-09,536000000.0,72.0,15
177.0,24.6844482422,60,0.036,7.77e-09,536000000.0,72.0,15
178.0,24.70124988557,60,0.036,7.77e-09,536000000.0,72.0,15
179.0,24.71805152894,60,0.036,7.77e-09,536000000.0,72.0,15
180.0,24.73485317231,60,0.036,7.77e-09,536000000.0,72.0,15
181.0,24.75165481568,60,0.036,7.77e-09,536000000.0,72.0,15
182.0,24.76845645905,60,0.036,7.77e-09,536000000.0,72.0,15
183.0,24.78525810242,60,0.036,7.77e-09,536000000.0,72.0,15
184.0,24.80205974579,60,0.036,7.77e-09,536000000.0,72.0,15
185.0,24.81886138916,60,0.036,7.77e-09,536000000.0,72.0,15
186.0,24.83566303253,60,0.036,7.77e-09,536000000.0,72.0,15
187.0,24.8524646759,60,0.036,7.77e-09,536000000.0,72.0,15
188.0,24.86918735504,60,0.036,7.77e-09,536000000.0,72.0,15
189.0,24.88591003418,60,0.036,7.77e-09,536000000.0,72.0,15
190.0,24.90263271332,60,0.036,7.77e-09,536000000.0,72.0,15
191.0,24.91935539246,60,0.036,7.77e-09,536000000.0,72.0,15
192.0,24.9360780716,60,0.036,7.77e-09,536000000.0,72.0,15
193.0,24.95280075074,60,0.036,7.77e-09,536000000.0,72.0,15
194.0,24.96952342988,60,0.036,7.77e-09,536000000.0,72.0,15
195.0,24.98624610902,60,0.036,7.77e-09,536000000.0,72.0,15
196.0,25.00296878816,60,0.036,7.77e-09,536000000.0,72.0,15
197.0,25.0196914673,60,0.036,7.77e-09,536000000.0,72.0,15
198.0,25.03633575441,60,0.036,7.77e-09,536000000.0,72.0,15
199.0,25.05298004152,60,0.036,7.77e-09,536000000.0,72.0,15
200.0,25.06962432863,60,0.036,7.77e-09,536000000.0,72.0,15
201.0,25.08626861574,60,0.036,7.77e-09,536000000.0,72.0,15
202.0,25.10291290285,60,0.036,7.77e-09,536000000.0,72.0,15
203.0,25.11955718996,60,0.036,7.77e-09,536000000.0,72.0,15
204.0,25.13620147707,60,0.036,7.77e-09,536000000.0,72.0,15
205.0,25.15284576418,60,0.036,7.77e-09,536000000.0,72.0,15
206.0,25.16949005129,60,0.036,7.77e-09,536000000.0,72.0,15
207.0,25.1861343384,60,0.036,7.77e-09,536000000.0,72.0,15
208.0,25.20270004274,60,0.036,7.77e-09,536000000.0,72.0,15
209.0,25.21926574708,60,0.036,7.77e-09,536000000.0,72.0,15
210.0,25.23583145142,60,0.036,7.77e-09,536000000.0,72.0,15
211.0,25.25239715576,60,0.036,7.77e-09,536000000.0,72.0,15
212.0,25.2689628601,60,0.036,7.77e-09,536000000.0,72.0,15
213.0,25.28552856444,60,0.036,7.77e-09,536000000.0,72.0,15
214.0,25.30209426878,60,0.036,7.77e-09,536000000.0,72.0,15
215.0,25.31865997312,60,0.036,7.77e-09,536000000.0,72.0,15
216.0,25.33522567746,60,0.036,7.77e-09,536000000.0,72.0,15
217.0,25.3517913818,60,0.036,7.77e-09,536000000.0,72.0,15
218.0,25.36827888486,60,0.036,7.77e-09,536000000.0,72.0,15
219.0,25.38476638792,60,0.036,7.77e-09,536000000.0,72.0,15
220.0,25.40125389098,60,0.036,7.77e-09,536000000.0,72.0,15
221.0,25.41774139404,60,0.036,7.77e-09,536000000.0,72.0,15
222.0,25.4342288971,60,0.036,7.77e-09,536000000.0,72.0,15
223.0,25.45071640016,60,0.036,7.77e-09,536000000.0,72.0,15
224.0,25.46720390322,60,0.036,7.77e-09,536000000.0,72.0,15
225.0,25.48369140628,60,0.036,7.77e-09,536000000.0,72.0,15
226.0,25.50017890934,60,0.036,7.77e-09,536000000.0,72.0,15
227.0,25.5166664124,60,0.036,7.77e-09,536000000.0,72.0,15
228.0,25.53307571415,60,0.036,7.77e-09,536000000.0,72.0,15
229.0,25.5494850159,60,0.036,7.77e-09,536000000.0,72.0,15
230.0,25.56589431765,60,0.036,7.77e-09,536000000.0,72.0,15
231.0,25.5823036194,60,0.036,7.77e-09,536000000.0,72.0,15
232.0,25.59871292115,60,0.036,7.77e-09,536000000.0,72.0,15
233.0,25.6151222229,60,0.036,7.77e-09,536000000.0,72.0,15
234.0,25.63153152465,60,0.036,7.77e-09,536000000.0,72.0,15
235.0,25.6479408264,60,0.036,7.77e-09,536000000.0,72.0,15
236.0,25.66435012815,60,0.036,7.77e-09,536000000.0,72.0,15
237.0,25.6807594299,60,0.036,7.77e-09,536000000.0,72.0,15
238.0,25.69709110257,60,0.036,7.77e-09,536000000.0,72.0,15
239.0,25.71342277524,60,0.036,7.77e-09,536000000.0,72.0,15
240.0,25.72975444791,60,0.036,7.77e-09,536000000.0,72.0,15
241.0,25.74608612058,60,0.036,7.77e-09,536000000.0,72.0,15
242.0,25.76241779325,60,0.036,7.77e-09,536000000.0,72.0,15
243.0,25.77874946592,60,0.036,7.77e-09,536000000.0,72.0,15
244.0,25.79508113859,60,0.036,7.77e-09,536000000.0,72.0,15
245.0,25.81141281126,60,0.036,7.77e-09,536000000.0,72.0,15
246.0,25.82774448393,60,0.036,7.77e-09,536000000.0,72.0,15
247.0,25.8440761566,60,0.036,7.77e-09,536000000.0,72.0,15
248.0,25.86033020018,60,0.036,7.77e-09,536000000.0,72.0,15
249.0,25.87658424376,60,0.036,7.77e-09,536000000.0,72.0,15
250.0,25.89283828734,60,0.036,7.77e-09,536000000.0,72.0,15
251.0,25.90909233092,60,0.036,7.77e-09,536000000.0,72.0,15
252.0,25.9253463745,60,0.036,7.77e-09,536000000.0,72.0,15
253.0,25.94160041808,60,0.036,7.77e-09,536000000.0,72.0,15
254.0,25.95785446166,60,0.036,7.77e-09,536000000.0,72.0,15
255.0,25.97410850524,60,0.036,7.77e-09,536000000.0,72.0,15
256.0,25.99036254882,60,0.036,7.77e-09,536000000.0,72.0,15
257.0,26.0066165924,60,0.036,7.77e-09,536000000.0,72.0,15
258.0,26.02279338836,60,0.036,7.77e-09,536000000.0,72.0,15
259.0,26.03897018432,60,0.036,7.77e-09,536000000.0,72.0,15
260.0,26.05514698028,60,0.036,7.77e-09,536000000.0,72.0,15
261.0,26.07132377624,60,0.036,7.77e-09,536000000.0,72.0,15
262.0,26.0875005722,60,0.036,7.77e-09,536000000.0,72.0,15
263.0,26.10367736816,60,0.036,7.77e-09,536000000.0,72.0,15
264.0,26.11985416412,60,0.036,7.77e-09,536000000.0,72.0,15
265.0,26.13603096008,60,0.036,7.77e-09,536000000.0,72.0,15
266.0,26.15220775604,60,0.036,7.77e-09,536000000.0,72.0,15
267.0,26.168384552,60,0.036,7.77e-09,536000000.0,72.0,15
268.0,26.18448448181,60,0.036,7.77e-09,536000000.0,72.0,15
269.0,26.20058441162,60,0.036,7.77e-09,536000000.0,72.0,15
270.0,26.21668434143,60,0.036,7.77e-09,536000000.0,72.0,15
271.0,26.23278427124,60,0.036,7.77e-09,536000000.0,72.0,15
272.0,26.24888420105,60,0.036,7.77e-09,536000000.0,72.0,15
273.0,26.26498413086,60,0.036,7.77e-09,536000000.0,72.0,15
274.0,26.28108406067,60,0.036,7.77e-09,536000000.0,72.0,15
275.0,26.29718399048,60,0.036,7.77e-09,536000000.0,72.0,15
276.0,26.31328392029,60,0.036,7.77e-09,536000000.0,72.0,15
277.0,26.3293838501,60,0.036,7.77e-09,536000000.0,72.0,15
278.0,26.34540748596,60,0.036,7.77e-09,536000000.0,72.0,15
279.0,26.36143112182,60,0.036,7.77e-09,536000000.0,72.0,15
280.0,26.37745475768,60,0.036,7.77e-09,536000000.0,72.0,15
281.0,26.39347839354,60,0.036,7.77e-09,536000000.0,72.0,15
282.0,26.4095020294,60,0.036,7.77e-09,536000000.0,72.0,15
283.0,26.42552566526,60,0.036,7.77e-09,536000000.0,72.0,15
284.0,26.44154930112,60,0.036,7.77e-09,536000000.0,72.0,15
285.0,26.45757293698,60,0.036,7.77e-09,536000000.0,72.0,15
286.0,26.47359657284,60,0.036,7.77e-09,536000000.0,72.0,15
287.0,26.4896202087,60,0.036,7.77e-09,536000000.0,72.0,15
288.0,26.50556735989,60,0.036,7.77e-09,536000000.0,72.0,15
289.0,26.52151451108,60,0.036,7.77e-09,536000000.0,72.0,15
290.0,26.53746166227,60,0.036,7.77e-09,536000000.0,72.0,15
291.0,26.55340881346,60,0.036,7.77e-09,536000000.0,72.0,15
292.0,26.56935596465,60,0.036,7.77e-09,536000000.0,72.0,15
293.0,26.58530311584,60,0.036,7.77e-09,536000000.0,72.0,15
294.0,26.60125026703,60,0.036,7.77e-09,536000000.0,72.0,15
295.0,26.61719741822,60,0.036,7.77e-09,536000000.0,72.0,15
296.0,26.63314456941,60,0.036,7.77e-09,536000000.0,72.0,15
297.0,26.6490917206,60,0.036,7.77e-09,536000000.0,72.0,15
298.0,26.66496315004,60,0.036,7.77e-09,536000000.0,72.0,15
299.0,26.68083457948,60,0.036,7.77e-09,536000000.0,72.0,15
300.0,26.69670600892,60,0.036,7.77e-09,536000000.0,72.0,15
301.0,26.71257743836,60,0.036,7.77e-09,536000000.0,72.0,15
302.0,26.7284488678,60,0.036,7.77e-09,536000000.0,72.0,15
303.0,26.74432029724,60,0.036,7.77e-09,536000000.0,72.0,15
304.0,26.76019172668,60,0.036,7.77e-09,536000000.0,72.0,15
305.0,26.77606315612,60,0.036,7.77e-09,536000000.0,72.0,15
306.0,26.79193458556,60,0.036,7.77e-09,536000000.0,72.0,15
307.0,26.807806015,60,0.036,7.77e-09,536000000.0,72.0,15
308.0,26.82360210417,60,0.036,7.77e-09,536000000.0,72.0,15
309.0,26.83939819334,60,0.036,7.77e-09,536000000.0,72.0,15
310.0,26.85519428251,60,0.036,7.77e-09,536000000.0,72.0,15
311.0,26.87099037168,60,0.036,7.77e-09,536000000.0,72.0,15
312.0,26.88678646085,60,0.036,7.77e-09,536000000.0,72.0,15
313.0,26.90258255002,60,0.036,7.77e-09,536000000.0,72.0,15
314.0,26.91837863919,60,0.036,7.77e-09,536000000.0,72.0,15
315.0,26.93417472836,60,0.036,7.77e-09,536000000.0,72.0,15
316.0,26.94997081753,60,0.036,7.77e-09,536000000.0,72.0,15
317.0,26.9657669067,60,0.036,7.77e-09,536000000.0,72.0,15
318.0,26.98148765561,60,0.036,7.77e-09,536000000.0,72.0,15
319.0,26.99720840452,60,0.036,7.77e-09,536000000.0,72.0,15
320.0,27.01292915343,60,0.036,7.77e-09,536000000.0,72.0,15
321.0,27.02864990234,60,0.036,7.77e-09,536000000.0,72.0,15
322.0,27.04437065125,60,0.036,7.77e-09,536000000.0,72.0,15
323.0,27.06009140016,60,0.036,7.77e-09,536000000.0,72.0,15
324.0,27.07581214907,60,0.036,7.77e-09,536000000.0,72.0,15
325.0,27.09153289798,60,0.036,7.77e-09,536000000.0,72.0,15
326.0,27.10725364689,60,0.036,7.77e-09,536000000.0,72.0,15
327.0,27.1229743958,60,0.036,7.77e-09,536000000.0,72.0,15
328.0,27.13862037663,60,0.036,7.77e-09,536000000.0,72.0,15
329.0,27.15426635746,60,0.036,7.77e-09,536000000.0,72.0,15
330.0,27.16991233829,60,0.036,7.77e-09,536000000.0,72.0,15
331.0,27.18555831912,60,0.036,7.77e-09,536000000.0,72.0,15
332.0,27.20120429995,60,0.036,7.77e-09,536000000.0,72.0,15
333.0,27.21685028078,60,0.036,7.77e-09,536000000.0,72.0,15
334.0,27.23249626161,60,0.036,7.77e-09,536000000.0,72.0,15
335.0,27.24814224244,60,0.036,7.77e-09,536000000.0,72.0,15
336.0,27.26378822327,60,0.036,7.77e-09,536000000.0,72.0,15
