time,T_int,T_ext_1,Film_Coef,Density,Specific_Heat,Thermal_Conductivity,Radius
1.0,21.9995765686,22.88,0.036,2.81e-09,1221000000.0,265.0,25
2.0,21.9987945557,23.76,0.036,2.81e-09,1221000000.0,265.0,25
3.0,21.9975681305,24.64,0.036,2.81e-09,1221000000.0,265.0,25
4.0,21.9955816269,25.52,0.036,2.81e-09,1221000000.0,265.0,25
5.0,21.9935951233,26.4,0.036,2.81e-09,1221000000.0,265.0,25
6.0,21.991228580475,27.28,0.036,2.81e-09,1221000000.0,265.0,25
7.0,21.98886203765,28.16,0.036,2.81e-09,1221000000.0,265.0,25
8.0,21.986495494825,29.04,0.036,2.81e-09,1221000000.0,265.0,25
9.0,21.984128952,29.92,0.036,2.81e-09,1221000000.0,265.0,25
10.0,21.9830758571375,30.8,0.036,2.81e-09,1221000000.0,265.0,25
11.0,21.982022762275,31.68,0.036,2.81e-09,1221000000.0,265.0,25
12.0,21.9809696674125,32.56,0.036,2.81e-09,1221000000.0,265.0,25
13.0,21.97991657255,33.44,0.036,2.81e-09,1221000000.0,265.0,25
14.0,21.9788634776875,34.32,0.036,2.81e-09,1221000000.0,265.0,25
15.0,21.977810382825,35.2,0.036,2.81e-09,1221000000.0,265.0,25
16.0,21.9767572879625,36.08,0.036,2.81e-09,1221000000.0,265.0,25
17.0,21.9757041931,36.96,0.036,2.81e-09,1221000000.0,265.0,25
18.0,21.97728538512,37.84,0.036,2.81e-09,1221000000.0,265.0,25
19.0,21.97886657714,38.72,0.036,2.81e-09,1221000000.0,265.0,25
20.0,21.98044776916,39.6,0.036,2.81e-09,1221000000.0,265.0,25
21.0,21.98202896118,40.48,0.036,2.81e-09,1221000000.0,265.0,25
22.0,21.9836101532,41.36,0.036,2.81e-09,1221000000.0,265.0,25
23.0,21.98519134522,42.24,0.036,2.81e-09,1221000000.0,265.0,25
24.0,21.98677253724,43.12,0.036,2.81e-09,1221000000.0,265.0,25
25.0,21.98835372926,44.0,0.036,2.81e-09,1221000000.0,265.0,25
26.0,21.98993492128,44.88,0.036,2.81e-09,1221000000.0,265.0,25
27.0,21.9915161133,45.76,0.036,2.81e-09,1221000000.0,265.0,25
28.0,21.99602565767,46.64,0.036,2.81e-09,1221000000.0,265.0,25
29.0,22.00053520204,47.52,0.036,2.81e-09,1221000000.0,265.0,25
30.0,22.00504474641,48.4,0.036,2.81e-09,1221000000.0,265.0,25
31.0,22.00955429078,49.28,0.036,2.81e-09,1221000000.0,265.0,25
32.0,22.01406383515,50.16,0.036,2.81e-09,1221000000.0,265.0,25
33.0,22.01857337952,51.04,0.036,2.81e-09,1221000000.0,265.0,25
34.0,22.02308292389,51.92,0.036,2.81e-09,1221000000.0,265.0,25
35.0,22.02759246826,52.8,0.036,2.81e-09,1221000000.0,265.0,25
36.0,22.03210201263,53.68,0.036,2.81e-09,1221000000.0,265.0,25
37.0,22.036611557,54.56,0.036,2.81e-09,1221000000.0,265.0,25
38.0,22.04413871765,55.44,0.036,2.81e-09,1221000000.0,265.0,25
39.0,22.0516658783,56.32,0.036,2.81e-09,1221000000.0,265.0,25
40.0,22.05919303895,57.2,0.036,2.81e-09,1221000000.0,265.0,25
41.0,22.0667201996,58.08,0.036,2.81e-09,1221000000.0,265.0,25
42.0,22.07424736025,58.96,0.036,2.81e-09,1221000000.0,265.0,25
43.0,22.0817745209,59.84,0.036,2.81e-09,1221000000.0,265.0,25
44.0,22.08930168155,60.72,0.036,2.81e-09,1221000000.0,265.0,25
45.0,22.0968288422,61.6,0.036,2.81e-09,1221000000.0,265.0,25
46.0,22.10435600285,62.48,0.036,2.81e-09,1221000000.0,265.0,25
47.0,22.1118831635,63.36,0.036,2.81e-09,1221000000.0,265.0,25
48.0,22.12103786473,64.24,0.036,2.81e-09,1221000000.0,265.0,25
49.0,22.13019256596,65.12,0.036,2.81e-09,1221000000.0,265.0,25
50.0,22.13934726719,66.0,0.036,2.81e-09,1221000000.0,265.0,25
51.0,22.14850196842,62.94,0.036,2.81e-09,1221000000.0,265.0,25
52.0,22.15765666965,62.88,0.036,2.81e-09,1221000000.0,265.0,25
53.0,22.16681137088,62.82,0.036,2.81e-09,1221000000.0,265.0,25
54.0,22.17596607211,62.76,0.036,2.81e-09,1221000000.0,265.0,25
55.0,22.18512077334,62.7,0.036,2.81e-09,1221000000.0,265.0,25
56.0,22.19427547457,62.64,0.036,2.81e-09,1221000000.0,265.0,25
57.0,22.2034301758,62.58,0.036,2.81e-09,1221000000.0,265.0,25
58.0,22.21299381258,62.52,0.036,2.81e-09,1221000000.0,265.0,25
59.0,22.22255744936,62.46,0.036,2.81e-09,1221000000.0,265.0,25
60.0,22.23212108614,62.4,0.036,2.81e-09,1221000000.0,265.0,25
61.0,22.24168472292,62.34,0.036,2.81e-09,1221000000.0,265.0,25
62.0,22.2512483597,62.28,0.036,2.81e-09,1221000000.0,265.0,25
63.0,22.26081199648,62.22,0.036,2.81e-09,1221000000.0,265.0,25
64.0,22.27037563326,62.16,0.036,2.81e-09,1221000000.0,265.0,25
65.0,22.27993927004,62.1,0.036,2.81e-09,1221000000.0,265.0,25
66.0,22.28950290682,62.04,0.036,2.81e-09,1221000000.0,265.0,25
67.0,22.2990665436,61.98,0.036,2.81e-09,1221000000.0,265.0,25
68.0,22.30856666567,61.92,0.036,2.81e-09,1221000000.0,265.0,25
69.0,22.31806678774,61.86,0.036,2.81e-09,1221000000.0,265.0,25
70.0,22.32756690981,61.8,0.036,2.81e-09,1221000000.0,265.0,25
71.0,22.33706703188,61.74,0.036,2.81e-09,1221000000.0,265.0,25
72.0,22.34656715395,61.68,0.036,2.81e-09,1221000000.0,265.0,25
73.0,22.35606727602,61.62,0.036,2.81e-09,1221000000.0,265.0,25
74.0,22.36556739809,61.56,0.036,2.81e-09,1221000000.0,265.0,25
75.0,22.37506752016,61.5,0.036,2.81e-09,1221000000.0,265.0,25
76.0,22.38456764223,61.44,0.036,2.81e-09,1221000000.0,265.0,25
77.0,22.3940677643,61.38,0.036,2.81e-09,1221000000.0,265.0,25
78.0,22.40334911348,61.32,0.036,2.81e-09,1221000000.0,265.0,25
79.0,22.41263046266,61.26,0.036,2.81e-09,1221000000.0,265.0,25
80.0,22.42191181184,61.2,0.036,2.81e-09,1221000000.0,265.0,25
81.0,22.43119316102,61.14,0.036,2.81e-09,1221000000.0,265.0,25
82.0,22.4404745102,61.08,0.036,2.81e-09,1221000000.0,265.0,25
83.0,22.44975585938,61.02,0.036,2.81e-09,1221000000.0,265.0,25
84.0,22.45903720856,60.96,0.036,2.81e-09,1221000000.0,265.0,25
85.0,22.46831855774,60.9,0.036,2.81e-09,1221000000.0,265.0,25
86.0,22.47759990692,60.84,0.036,2.81e-09,1221000000.0,265.0,25
87.0,22.4868812561,60.78,0.036,2.81e-09,1221000000.0,265.0,25
88.0,22.49589328766,60.72,0.036,2.81e-09,1221000000.0,265.0,25
89.0,22.50490531922,60.66,0.036,2.81e-09,1221000000.0,265.0,25
90.0,22.51391735078,60.6,0.036,2.81e-09,1221000000.0,265.0,25
91.0,22.52292938234,60.54,0.036,2.81e-09,1221000000.0,265.0,25
92.0,22.5319414139,60.48,0.036,2.81e-09,1221000000.0,265.0,25
93.0,22.54095344546,60.42,0.036,2.81e-09,1221000000.0,265.0,25
94.0,22.54996547702,60.36,0.036,2.81e-09,1221000000.0,265.0,25
95.0,22.55897750858,60.3,0.036,2.81e-09,1221000000.0,265.0,25
96.0,22.56798954014,60.24,0.036,2.81e-09,1221000000.0,265.0,25
97.0,22.5770015717,60.18,0.036,2.81e-09,1221000000.0,265.0,25
98.0,22.58584518437,60.12,0.036,2.81e-09,1221000000.0,265.0,25
99.0,22.59468879704,60.06,0.036,2.81e-09,1221000000.0,265.0,25
100.0,22.60353240971,60.0,0.036,2.81e-09,1221000000.0,265.0,25
101.0,22.61237602238,60,0.036,2.81e-09,1221000000.0,265.0,25
102.0,22.62121963505,60,0.036,2.81e-09,1221000000.0,265.0,25
103.0,22.63006324772,60,0.036,2.81e-09,1221000000.0,265.0,25
104.0,22.63890686039,60,0.036,2.81e-09,1221000000.0,265.0,25
105.0,22.64775047306,60,0.036,2.81e-09,1221000000.0,265.0,25
106.0,22.65659408573,60,0.036,2.81e-09,1221000000.0,265.0,25
107.0,22.6654376984,60,0.036,2.81e-09,1221000000.0,265.0,25
108.0,22.67420845035,60,0.036,2.81e-09,1221000000.0,265.0,25
109.0,22.6829792023,60,0.036,2.81e-09,1221000000.0,265.0,25
110.0,22.69174995425,60,0.036,2.81e-09,1221000000.0,265.0,25
111.0,22.7005207062,60,0.036,2.81e-09,1221000000.0,265.0,25
112.0,22.70929145815,60,0.036,2.81e-09,1221000000.0,265.0,25
113.0,22.7180622101,60,0.036,2.81e-09,1221000000.0,265.0,25
114.0,22.72683296205,60,0.036,2.81e-09,1221000000.0,265.0,25
115.0,22.735603714,60,0.036,2.81e-09,1221000000.0,265.0,25
116.0,22.74437446595,60,0.036,2.81e-09,1221000000.0,265.0,25
117.0,22.7531452179,60,0.036,2.81e-09,1221000000.0,265.0,25
118.0,22.76187953949,60,0.036,2.81e-09,1221000000.0,265.0,25
119.0,22.77061386108,60,0.036,2.81e-09,1221000000.0,265.0,25
120.0,22.77934818267,60,0.036,2.81e-09,1221000000.0,265.0,25
121.0,22.78808250426,60,0.036,2.81e-09,1221000000.0,265.0,25
122.0,22.79681682585,60,0.036,2.81e-09,1221000000.0,265.0,25
123.0,22.80555114744,60,0.036,2.81e-09,1221000000.0,265.0,25
124.0,22.81428546903,60,0.036,2.81e-09,1221000000.0,265.0,25
125.0,22.82301979062,60,0.036,2.81e-09,1221000000.0,265.0,25
126.0,22.83175411221,60,0.036,2.81e-09,1221000000.0,265.0,25
127.0,22.8404884338,60,0.036,2.81e-09,1221000000.0,265.0,25
128.0,22.84919776913,60,0.036,2.81e-09,1221000000.0,265.0,25
129.0,22.85790710446,60,0.036,2.81e-09,1221000000.0,265.0,25
130.0,22.86661643979,60,0.036,2.81e-09,1221000000.0,265.0,25
131.0,22.87532577512,60,0.036,2.81e-09,1221000000.0,265.0,25
132.0,22.88403511045,60,0.036,2.81e-09,1221000000.0,265.0,25
133.0,22.89274444578,60,0.036,2.81e-09,1221000000.0,265.0,25
134.0,22.90145378111,60,0.036,2.81e-09,1221000000.0,265.0,25
135.0,22.91016311644,60,0.036,2.81e-09,1221000000.0,265.0,25
136.0,22.91887245177,60,0.036,2.81e-09,1221000000.0,265.0,25
137.0,22.9275817871,60,0.036,2.81e-09,1221000000.0,265.0,25
138.0,22.93626976012,60,0.036,2.81e-09,1221000000.0,265.0,25
139.0,22.94495773314,60,0.036,2.81e-09,1221000000.0,265.0,25
140.0,22.95364570616,60,0.036,2.81e-09,1221000000.0,265.0,25
141.0,22.96233367918,60,0.036,2.81e-09,1221000000.0,265.0,25
142.0,22.9710216522,60,0.036,2.81e-09,1221000000.0,265.0,25
143.0,22.97970962522,60,0.036,2.81e-09,1221000000.0,265.0,25
144.0,22.98839759824,60,0.036,2.81e-09,1221000000.0,265.0,25
145.0,22.99708557126,60,0.036,2.81e-09,1221000000.0,265.0,25
146.0,23.00577354428,60,0.036,2.81e-09,1221000000.0,265.0,25
147.0,23.0144615173,60,0.036,2.81e-09,1221000000.0,265.0,25
148.0,23.0231290817,60,0.036,2.81e-09,1221000000.0,265.0,25
149.0,23.0317966461,60,0.036,2.81e-09,1221000000.0,265.0,25
150.0,23.0404642105,60,0.036,2.81e-09,1221000000.0,265.0,25
151.0,23.0491317749,60,0.036,2.81e-09,1221000000.0,265.0,25
152.0,23.0577993393,60,0.036,2.81e-09,1221000000.0,265.0,25
153.0,23.0664669037,60,0.036,2.81e-09,1221000000.0,265.0,25
154.0,23.0751344681,60,0.036,2.81e-09,1221000000.0,265.0,25
155.0,23.0838020325,60,0.036,2.81e-09,1221000000.0,265.0,25
156.0,23.0924695969,60,0.036,2.81e-09,1221000000.0,265.0,25
157.0,23.1011371613,60,0.036,2.81e-09,1221000000.0,265.0,25
158.0,23.10978450779,60,0.036,2.81e-09,1221000000.0,265.0,25
159.0,23.11843185428,60,0.036,2.81e-09,1221000000.0,265.0,25
160.0,23.12707920077,60,0.036,2.81e-09,1221000000.0,265.0,25
161.0,23.13572654726,60,0.036,2.81e-09,1221000000.0,265.0,25
162.0,23.14437389375,60,0.036,2.81e-09,1221000000.0,265.0,25
163.0,23.15302124024,60,0.036,2.81e-09,1221000000.0,265.0,25
164.0,23.16166858673,60,0.036,2.81e-09,1221000000.0,265.0,25
165.0,23.17031593322,60,0.036,2.81e-09,1221000000.0,265.0,25
166.0,23.17896327971,60,0.036,2.81e-09,1221000000.0,265.0,25
167.0,23.1876106262,60,0.036,2.81e-09,1221000000.0,265.0,25
168.0,23.19623794554,60,0.036,2.81e-09,1221000000.0,265.0,25
169.0,23.20486526488,60,0.036,2.81e-09,1221000000.0,265.0,25
170.0,23.21349258422,60,0.036,2.81e-09,1221000000.0,265.0,25
171.0,23.22211990356,60,0.036,2.81e-09,1221000000.0,265.0,25
172.0,23.2307472229,60,0.036,2.81e-09,1221000000.0,265.0,25
173.0,23.23937454224,60,0.036,2.81e-09,1221000000.0,265.0,25
174.0,23.24800186158,60,0.036,2.81e-09,1221000000.0,265.0,25
175.0,23.25662918092,60,0.036,2.81e-09,1221000000.0,265.0,25
176.0,23.26525650026,60,0.036,2.81e-09,1221000000.0,265.0,25
177.0,23.2738838196,60,0.036,2.81e-09,1221000000.0,265.0,25
178.0,23.28249111177,60,0.036,2.81e-09,1221000000.0,265.0,25
179.0,23.29109840394,60,0.036,2.81e-09,1221000000.0,265.0,25
180.0,23.29970569611,60,0.036,2.81e-09,1221000000.0,265.0,25
181.0,23.30831298828,60,0.036,2.81e-09,1221000000.0,265.0,25
182.0,23.31692028045,60,0.036,2.81e-09,1221000000.0,265.0,25
183.0,23.32552757262,60,0.036,2.81e-09,1221000000.0,265.0,25
184.0,23.33413486479,60,0.036,2.81e-09,1221000000.0,265.0,25
185.0,23.34274215696,60,0.036,2.81e-09,1221000000.0,265.0,25
186.0,23.35134944913,60,0.036,2.81e-09,1221000000.0,265.0,25
187.0,23.3599567413,60,0.036,2.81e-09,1221000000.0,265.0,25
188.0,23.36854381558,60,0.036,2.81e-09,1221000000.0,265.0,25
189.0,23.37713088986,60,0.036,2.81e-09,1221000000.0,265.0,25
190.0,23.38571796414,60,0.036,2.81e-09,1221000000.0,265.0,25
191.0,23.39430503842,60,0.036,2.81e-09,1221000000.0,265.0,25
192.0,23.4028921127,60,0.036,2.81e-09,1221000000.0,265.0,25
193.0,23.41147918698,60,0.036,2.81e-09,1221000000.0,265.0,25
194.0,23.42006626126,60,0.036,2.81e-09,1221000000.0,265.0,25
195.0,23.42865333554,60,0.036,2.81e-09,1221000000.0,265.0,25
196.0,23.43724040982,60,0.036,2.81e-09,1221000000.0,265.0,25
197.0,23.4458274841,60,0.036,2.81e-09,1221000000.0,265.0,25
198.0,23.45439472196,60,0.036,2.81e-09,1221000000.0,265.0,25
199.0,23.46296195982,60,0.036,2.81e-09,1221000000.0,265.0,25
200.0,23.47152919768,60,0.036,2.81e-09,1221000000.0,265.0,25
201.0,23.48009643554,60,0.036,2.81e-09,1221000000.0,265.0,25
202.0,23.4886636734,60,0.036,2.81e-09,1221000000.0,265.0,25
203.0,23.49723091126,60,0.036,2.81e-09,1221000000.0,265.0,25
204.0,23.50579814912,60,0.036,2.81e-09,1221000000.0,265.0,25
205.0,23.51436538698,60,0.036,2.81e-09,1221000000.0,265.0,25
206.0,23.52293262484,60,0.036,2.81e-09,1221000000.0,265.0,25
207.0,23.5314998627,60,0.036,2.81e-09,1221000000.0,265.0,25
208.0,23.54004688266,60,0.036,2.81e-09,1221000000.0,265.0,25
209.0,23.54859390262,60,0.036,2.81e-09,1221000000.0,265.0,25
210.0,23.55714092258,60,0.036,2.81e-09,1221000000.0,265.0,25
211.0,23.56568794254,60,0.036,2.81e-09,1221000000.0,265.0,25
212.0,23.5742349625,60,0.036,2.81e-09,1221000000.0,265.0,25
213.0,23.58278198246,60,0.036,2.81e-09,1221000000.0,265.0,25
214.0,23.59132900242,60,0.036,2.81e-09,1221000000.0,265.0,25
215.0,23.59987602238,60,0.036,2.81e-09,1221000000.0,265.0,25
216.0,23.60842304234,60,0.036,2.81e-09,1221000000.0,265.0,25
217.0,23.6169700623,60,0.036,2.81e-09,1221000000.0,265.0,25
218.0,23.62549705509,60,0.036,2.81e-09,1221000000.0,265.0,25
219.0,23.63402404788,60,0.036,2.81e-09,1221000000.0,265.0,25
220.0,23.64255104067,60,0.036,2.81e-09,1221000000.0,265.0,25
221.0,23.65107803346,60,0.036,2.81e-09,1221000000.0,265.0,25
222.0,23.65960502625,60,0.036,2.81e-09,1221000000.0,265.0,25
223.0,23.66813201904,60,0.036,2.81e-09,1221000000.0,265.0,25
224.0,23.67665901183,60,0.036,2.81e-09,1221000000.0,265.0,25
225.0,23.68518600462,60,0.036,2.81e-09,1221000000.0,265.0,25
226.0,23.69371299741,60,0.036,2.81e-09,1221000000.0,265.0,25
227.0,23.7022399902,60,0.036,2.81e-09,1221000000.0,265.0,25
228.0,23.71074714658,60,0.036,2.81e-09,1221000000.0,265.0,25
229.0,23.71925430296,60,0.036,2.81e-09,1221000000.0,265.0,25
230.0,23.72776145934,60,0.036,2.81e-09,1221000000.0,265.0,25
231.0,23.73626861572,60,0.036,2.81e-09,1221000000.0,265.0,25
232.0,23.7447757721,60,0.036,2.81e-09,1221000000.0,265.0,25
233.0,23.75328292848,60,0.036,2.81e-09,1221000000.0,265.0,25
234.0,23.76179008486,60,0.036,2.81e-09,1221000000.0,265.0,25
235.0,23.77029724124,60,0.036,2.81e-09,1221000000.0,265.0,25
236.0,23.77880439762,60,0.036,2.81e-09,1221000000.0,265.0,25
237.0,23.787311554,60,0.036,2.81e-09,1221000000.0,265.0,25
238.0,23.79579887394,60,0.036,2.81e-09,1221000000.0,265.0,25
239.0,23.80428619388,60,0.036,2.81e-09,1221000000.0,265.0,25
240.0,23.81277351382,60,0.036,2.81e-09,1221000000.0,265.0,25
241.0,23.82126083376,60,0.036,2.81e-09,1221000000.0,265.0,25
242.0,23.8297481537,60,0.036,2.81e-09,1221000000.0,265.0,25
243.0,23.83823547364,60,0.036,2.81e-09,1221000000.0,265.0,25
244.0,23.84672279358,60,0.036,2.81e-09,1221000000.0,265.0,25
245.0,23.85521011352,60,0.036,2.81e-09,1221000000.0,265.0,25
246.0,23.86369743346,60,0.036,2.81e-09,1221000000.0,265.0,25
247.0,23.8721847534,60,0.036,2.81e-09,1221000000.0,265.0,25
248.0,23.88065204619,60,0.036,2.81e-09,1221000000.0,265.0,25
249.0,23.88911933898,60,0.036,2.81e-09,1221000000.0,265.0,25
250.0,23.89758663177,60,0.036,2.81e-09,1221000000.0,265.0,25
251.0,23.90605392456,60,0.036,2.81e-09,1221000000.0,265.0,25
252.0,23.91452121735,60,0.036,2.81e-09,1221000000.0,265.0,25
253.0,23.92298851014,60,0.036,2.81e-09,1221000000.0,265.0,25
254.0,23.93145580293,60,0.036,2.81e-09,1221000000.0,265.0,25
255.0,23.93992309572,60,0.036,2.81e-09,1221000000.0,265.0,25
256.0,23.94839038851,60,0.036,2.81e-09,1221000000.0,265.0,25
257.0,23.9568576813,60,0.036,2.81e-09,1221000000.0,265.0,25
258.0,23.96530513766,60,0.036,2.81e-09,1221000000.0,265.0,25
259.0,23.97375259402,60,0.036,2.81e-09,1221000000.0,265.0,25
260.0,23.98220005038,60,0.036,2.81e-09,1221000000.0,265.0,25
261.0,23.99064750674,60,0.036,2.81e-09,1221000000.0,265.0,25
262.0,23.9990949631,60,0.036,2.81e-09,1221000000.0,265.0,25
263.0,24.00754241946,60,0.036,2.81e-09,1221000000.0,265.0,25
264.0,24.01598987582,60,0.036,2.81e-09,1221000000.0,265.0,25
265.0,24.02443733218,60,0.036,2.81e-09,1221000000.0,265.0,25
266.0,24.03288478854,60,0.036,2.81e-09,1221000000.0,265.0,25
267.0,24.0413322449,60,0.036,2.81e-09,1221000000.0,265.0,25
268.0,24.04976005557,60,0.036,2.81e-09,1221000000.0,265.0,25
269.0,24.05818786624,60,0.036,2.81e-09,1221000000.0,265.0,25
270.0,24.06661567691,60,0.036,2.81e-09,1221000000.0,265.0,25
271.0,24.07504348758,60,0.036,2.81e-09,1221000000.0,265.0,25
272.0,24.08347129825,60,0.036,2.81e-09,1221000000.0,265.0,25
273.0,24.09189910892,60,0.036,2.81e-09,1221000000.0,265.0,25
274.0,24.10032691959,60,0.036,2.81e-09,1221000000.0,265.0,25
275.0,24.10875473026,60,0.036,2.81e-09,1221000000.0,265.0,25
276.0,24.11718254093,60,0.036,2.81e-09,1221000000.0,265.0,25
277.0,24.1256103516,60,0.036,2.81e-09,1221000000.0,265.0,25
278.0,24.13401832584,60,0.036,2.81e-09,1221000000.0,265.0,25
279.0,24.14242630008,60,0.036,2.81e-09,1221000000.0,265.0,25
280.0,24.15083427432,60,0.036,2.81e-09,1221000000.0,265.0,25
281.0,24.15924224856,60,0.036,2.81e-09,1221000000.0,265.0,25
282.0,24.1676502228,60,0.036,2.81e-09,1221000000.0,265.0,25
283.0,24.17605819704,60,0.036,2.81e-09,1221000000.0,265.0,25
284.0,24.18446617128,60,0.036,2.81e-09,1221000000.0,265.0,25
285.0,24.19287414552,60,0.036,2.81e-09,1221000000.0,265.0,25
286.0,24.20128211976,60,0.036,2.81e-09,1221000000.0,265.0,25
287.0,24.209690094,60,0.036,2.81e-09,1221000000.0,265.0,25
288.0,24.21807842255,60,0.036,2.81e-09,1221000000.0,265.0,25
289.0,24.2264667511,60,0.036,2.81e-09,1221000000.0,265.0,25
290.0,24.23485507965,60,0.036,2.81e-09,1221000000.0,265.0,25
291.0,24.2432434082,60,0.036,2.81e-09,1221000000.0,265.0,25
292.0,24.25163173675,60,0.036,2.81e-09,1221000000.0,265.0,25
293.0,24.2600200653,60,0.036,2.81e-09,1221000000.0,265.0,25
294.0,24.26840839385,60,0.036,2.81e-09,1221000000.0,265.0,25
295.0,24.2767967224,60,0.036,2.81e-09,1221000000.0,265.0,25
296.0,24.28518505095,60,0.036,2.81e-09,1221000000.0,265.0,25
297.0,24.2935733795,60,0.036,2.81e-09,1221000000.0,265.0,25
298.0,24.30194187163,60,0.036,2.81e-09,1221000000.0,265.0,25
299.0,24.31031036376,60,0.036,2.81e-09,1221000000.0,265.0,25
300.0,24.31867885589,60,0.036,2.81e-09,1221000000.0,265.0,25
301.0,24.32704734802,60,0.036,2.81e-09,1221000000.0,265.0,25
302.0,24.33541584015,60,0.036,2.81e-09,1221000000.0,265.0,25
303.0,24.34378433228,60,0.036,2.81e-09,1221000000.0,265.0,25
304.0,24.35215282441,60,0.036,2.81e-09,1221000000.0,265.0,25
305.0,24.36052131654,60,0.036,2.81e-09,1221000000.0,265.0,25
306.0,24.36888980867,60,0.036,2.81e-09,1221000000.0,265.0,25
307.0,24.3772583008,60,0.036,2.81e-09,1221000000.0,265.0,25
308.0,24.38560733797,60,0.036,2.81e-09,1221000000.0,265.0,25
309.0,24.39395637514,60,0.036,2.81e-09,1221000000.0,265.0,25
310.0,24.40230541231,60,0.036,2.81e-09,1221000000.0,265.0,25
311.0,24.41065444948,60,0.036,2.81e-09,1221000000.0,265.0,25
312.0,24.41900348665,60,0.036,2.81e-09,1221000000.0,265.0,25
313.0,24.42735252382,60,0.036,2.81e-09,1221000000.0,265.0,25
314.0,24.43570156099,60,0.036,2.81e-09,1221000000.0,265.0,25
315.0,24.44405059816,60,0.036,2.81e-09,1221000000.0,265.0,25
316.0,24.45239963533,60,0.036,2.81e-09,1221000000.0,265.0,25
317.0,24.4607486725,60,0.036,2.81e-09,1221000000.0,265.0,25
318.0,24.46907825471,60,0.036,2.81e-09,1221000000.0,265.0,25
319.0,24.47740783692,60,0.036,2.81e-09,1221000000.0,265.0,25
320.0,24.48573741913,60,0.036,2.81e-09,1221000000.0,265.0,25
321.0,24.49406700134,60,0.036,2.81e-09,1221000000.0,265.0,25
322.0,24.50239658355,60,0.036,2.81e-09,1221000000.0,265.0,25
323.0,24.51072616576,60,0.036,2.81e-09,1221000000.0,265.0,25
324.0,24.51905574797,60,0.036,2.81e-09,1221000000.0,265.0,25
