time,T_int,T_ext_1,Film_Coef,Density,Specific_Heat,Thermal_Conductivity,Radius
1.0,21.9996376038,22.88,0.036,2.71e-09,1221000000.0,245.0,25
2.0,21.9990119934,23.76,0.036,2.71e-09,1221000000.0,245.0,25
3.0,21.998046875,24.64,0.036,2.71e-09,1221000000.0,245.0,25
4.0,21.9963874817,25.52,0.036,2.71e-09,1221000000.0,245.0,25
5.0,21.9947280884,26.4,0.036,2.71e-09,1221000000.0,245.0,25
6.0,21.99255228045,27.28,0.036,2.71e-09,1221000000.0,245.0,25
7.0,21.9903764725,28.16,0.036,2.71e-09,1221000000.0,245.0,25
8.0,21.98820066455,29.04,0.036,2.71e-09,1221000000.0,245.0,25
9.0,21.9860248566,29.92,0.036,2.71e-09,1221000000.0,245.0,25
10.0,21.984894752525,30.8,0.036,2.71e-09,1221000000.0,245.0,25
11.0,21.98376464845,31.68,0.036,2.71e-09,1221000000.0,245.0,25
12.0,21.982634544375,32.56,0.036,2.71e-09,1221000000.0,245.0,25
13.0,21.9815044403,33.44,0.036,2.71e-09,1221000000.0,245.0,25
14.0,21.980374336225,34.32,0.036,2.71e-09,1221000000.0,245.0,25
15.0,21.97924423215,35.2,0.036,2.71e-09,1221000000.0,245.0,25
16.0,21.978114128075,36.08,0.036,2.71e-09,1221000000.0,245.0,25
17.0,21.976984024,36.96,0.036,2.71e-09,1221000000.0,245.0,25
18.0,21.97833633419,37.84,0.036,2.71e-09,1221000000.0,245.0,25
19.0,21.97968864438,38.72,0.036,2.71e-09,1221000000.0,245.0,25
20.0,21.98104095457,39.6,0.036,2.71e-09,1221000000.0,245.0,25
21.0,21.98239326476,40.48,0.036,2.71e-09,1221000000.0,245.0,25
22.0,21.98374557495,41.36,0.036,2.71e-09,1221000000.0,245.0,25
23.0,21.98509788514,42.24,0.036,2.71e-09,1221000000.0,245.0,25
24.0,21.98645019533,43.12,0.036,2.71e-09,1221000000.0,245.0,25
25.0,21.98780250552,44.0,0.036,2.71e-09,1221000000.0,245.0,25
26.0,21.98915481571,44.88,0.036,2.71e-09,1221000000.0,245.0,25
27.0,21.9905071259,45.76,0.036,2.71e-09,1221000000.0,245.0,25
28.0,21.99473648075,46.64,0.036,2.71e-09,1221000000.0,245.0,25
29.0,21.9989658356,47.52,0.036,2.71e-09,1221000000.0,245.0,25
30.0,22.00319519045,48.4,0.036,2.71e-09,1221000000.0,245.0,25
31.0,22.0074245453,49.28,0.036,2.71e-09,1221000000.0,245.0,25
32.0,22.01165390015,50.16,0.036,2.71e-09,1221000000.0,245.0,25
33.0,22.015883255,51.04,0.036,2.71e-09,1221000000.0,245.0,25
34.0,22.02011260985,51.92,0.036,2.71e-09,1221000000.0,245.0,25
35.0,22.0243419647,52.8,0.036,2.71e-09,1221000000.0,245.0,25
36.0,22.02857131955,53.68,0.036,2.71e-09,1221000000.0,245.0,25
37.0,22.0328006744,54.56,0.036,2.71e-09,1221000000.0,245.0,25
38.0,22.04004116055,55.44,0.036,2.71e-09,1221000000.0,245.0,25
39.0,22.0472816467,56.32,0.036,2.71e-09,1221000000.0,245.0,25
40.0,22.05452213285,57.2,0.036,2.71e-09,1221000000.0,245.0,25
41.0,22.061762619,58.08,0.036,2.71e-09,1221000000.0,245.0,25
42.0,22.06900310515,58.96,0.036,2.71e-09,1221000000.0,245.0,25
43.0,22.0762435913,59.84,0.036,2.71e-09,1221000000.0,245.0,25
44.0,22.08348407745,60.72,0.036,2.71e-09,1221000000.0,245.0,25
45.0,22.0907245636,61.6,0.036,2.71e-09,1221000000.0,245.0,25
46.0,22.09796504975,62.48,0.036,2.71e-09,1221000000.0,245.0,25
47.0,22.1052055359,63.36,0.036,2.71e-09,1221000000.0,245.0,25
48.0,22.11419544221,64.24,0.036,2.71e-09,1221000000.0,245.0,25
49.0,22.12318534852,65.12,0.036,2.71e-09,1221000000.0,245.0,25
50.0,22.13217525483,66.0,0.036,2.71e-09,1221000000.0,245.0,25
51.0,22.14116516114,62.94,0.036,2.71e-09,1221000000.0,245.0,25
52.0,22.15015506745,62.88,0.036,2.71e-09,1221000000.0,245.0,25
53.0,22.15914497376,62.82,0.036,2.71e-09,1221000000.0,245.0,25
54.0,22.16813488007,62.76,0.036,2.71e-09,1221000000.0,245.0,25
55.0,22.17712478638,62.7,0.036,2.71e-09,1221000000.0,245.0,25
56.0,22.18611469269,62.64,0.036,2.71e-09,1221000000.0,245.0,25
57.0,22.195104599,62.58,0.036,2.71e-09,1221000000.0,245.0,25
58.0,22.20464134216,62.52,0.036,2.71e-09,1221000000.0,245.0,25
59.0,22.21417808532,62.46,0.036,2.71e-09,1221000000.0,245.0,25
60.0,22.22371482848,62.4,0.036,2.71e-09,1221000000.0,245.0,25
61.0,22.23325157164,62.34,0.036,2.71e-09,1221000000.0,245.0,25
62.0,22.2427883148,62.28,0.036,2.71e-09,1221000000.0,245.0,25
63.0,22.25232505796,62.22,0.036,2.71e-09,1221000000.0,245.0,25
64.0,22.26186180112,62.16,0.036,2.71e-09,1221000000.0,245.0,25
65.0,22.27139854428,62.1,0.036,2.71e-09,1221000000.0,245.0,25
66.0,22.28093528744,62.04,0.036,2.71e-09,1221000000.0,245.0,25
67.0,22.2904720306,61.98,0.036,2.71e-09,1221000000.0,245.0,25
68.0,22.30002403256,61.92,0.036,2.71e-09,1221000000.0,245.0,25
69.0,22.30957603452,61.86,0.036,2.71e-09,1221000000.0,245.0,25
70.0,22.31912803648,61.8,0.036,2.71e-09,1221000000.0,245.0,25
71.0,22.32868003844,61.74,0.036,2.71e-09,1221000000.0,245.0,25
72.0,22.3382320404,61.68,0.036,2.71e-09,1221000000.0,245.0,25
73.0,22.34778404236,61.62,0.036,2.71e-09,1221000000.0,245.0,25
74.0,22.35733604432,61.56,0.036,2.71e-09,1221000000.0,245.0,25
75.0,22.36688804628,61.5,0.036,2.71e-09,1221000000.0,245.0,25
76.0,22.37644004824,61.44,0.036,2.71e-09,1221000000.0,245.0,25
77.0,22.3859920502,61.38,0.036,2.71e-09,1221000000.0,245.0,25
78.0,22.39536113742,61.32,0.036,2.71e-09,1221000000.0,245.0,25
79.0,22.40473022464,61.26,0.036,2.71e-09,1221000000.0,245.0,25
80.0,22.41409931186,61.2,0.036,2.71e-09,1221000000.0,245.0,25
81.0,22.42346839908,61.14,0.036,2.71e-09,1221000000.0,245.0,25
82.0,22.4328374863,61.08,0.036,2.71e-09,1221000000.0,245.0,25
83.0,22.44220657352,61.02,0.036,2.71e-09,1221000000.0,245.0,25
84.0,22.45157566074,60.96,0.036,2.71e-09,1221000000.0,245.0,25
85.0,22.46094474796,60.9,0.036,2.71e-09,1221000000.0,245.0,25
86.0,22.47031383518,60.84,0.036,2.71e-09,1221000000.0,245.0,25
87.0,22.4796829224,60.78,0.036,2.71e-09,1221000000.0,245.0,25
88.0,22.48879795078,60.72,0.036,2.71e-09,1221000000.0,245.0,25
89.0,22.49791297916,60.66,0.036,2.71e-09,1221000000.0,245.0,25
90.0,22.50702800754,60.6,0.036,2.71e-09,1221000000.0,245.0,25
91.0,22.51614303592,60.54,0.036,2.71e-09,1221000000.0,245.0,25
92.0,22.5252580643,60.48,0.036,2.71e-09,1221000000.0,245.0,25
93.0,22.53437309268,60.42,0.036,2.71e-09,1221000000.0,245.0,25
94.0,22.54348812106,60.36,0.036,2.71e-09,1221000000.0,245.0,25
95.0,22.55260314944,60.3,0.036,2.71e-09,1221000000.0,245.0,25
96.0,22.56171817782,60.24,0.036,2.71e-09,1221000000.0,245.0,25
97.0,22.5708332062,60.18,0.036,2.71e-09,1221000000.0,245.0,25
98.0,22.5797765732,60.12,0.036,2.71e-09,1221000000.0,245.0,25
99.0,22.5887199402,60.06,0.036,2.71e-09,1221000000.0,245.0,25
100.0,22.5976633072,60.0,0.036,2.71e-09,1221000000.0,245.0,25
101.0,22.6066066742,60,0.036,2.71e-09,1221000000.0,245.0,25
102.0,22.6155500412,60,0.036,2.71e-09,1221000000.0,245.0,25
103.0,22.6244934082,60,0.036,2.71e-09,1221000000.0,245.0,25
104.0,22.6334367752,60,0.036,2.71e-09,1221000000.0,245.0,25
105.0,22.6423801422,60,0.036,2.71e-09,1221000000.0,245.0,25
106.0,22.6513235092,60,0.036,2.71e-09,1221000000.0,245.0,25
107.0,22.6602668762,60,0.036,2.71e-09,1221000000.0,245.0,25
108.0,22.66912899015,60,0.036,2.71e-09,1221000000.0,245.0,25
109.0,22.6779911041,60,0.036,2.71e-09,1221000000.0,245.0,25
110.0,22.68685321805,60,0.036,2.71e-09,1221000000.0,245.0,25
111.0,22.695715332,60,0.036,2.71e-09,1221000000.0,245.0,25
112.0,22.70457744595,60,0.036,2.71e-09,1221000000.0,245.0,25
113.0,22.7134395599,60,0.036,2.71e-09,1221000000.0,245.0,25
114.0,22.72230167385,60,0.036,2.71e-09,1221000000.0,245.0,25
115.0,22.7311637878,60,0.036,2.71e-09,1221000000.0,245.0,25
116.0,22.74002590175,60,0.036,2.71e-09,1221000000.0,245.0,25
117.0,22.7488880157,60,0.036,2.71e-09,1221000000.0,245.0,25
118.0,22.75770912166,60,0.036,2.71e-09,1221000000.0,245.0,25
119.0,22.76653022762,60,0.036,2.71e-09,1221000000.0,245.0,25
120.0,22.77535133358,60,0.036,2.71e-09,1221000000.0,245.0,25
121.0,22.78417243954,60,0.036,2.71e-09,1221000000.0,245.0,25
122.0,22.7929935455,60,0.036,2.71e-09,1221000000.0,245.0,25
123.0,22.80181465146,60,0.036,2.71e-09,1221000000.0,245.0,25
124.0,22.81063575742,60,0.036,2.71e-09,1221000000.0,245.0,25
125.0,22.81945686338,60,0.036,2.71e-09,1221000000.0,245.0,25
126.0,22.82827796934,60,0.036,2.71e-09,1221000000.0,245.0,25
127.0,22.8370990753,60,0.036,2.71e-09,1221000000.0,245.0,25
128.0,22.84589328764,60,0.036,2.71e-09,1221000000.0,245.0,25
129.0,22.85468749998,60,0.036,2.71e-09,1221000000.0,245.0,25
130.0,22.86348171232,60,0.036,2.71e-09,1221000000.0,245.0,25
131.0,22.87227592466,60,0.036,2.71e-09,1221000000.0,245.0,25
132.0,22.881070137,60,0.036,2.71e-09,1221000000.0,245.0,25
133.0,22.88986434934,60,0.036,2.71e-09,1221000000.0,245.0,25
134.0,22.89865856168,60,0.036,2.71e-09,1221000000.0,245.0,25
135.0,22.90745277402,60,0.036,2.71e-09,1221000000.0,245.0,25
136.0,22.91624698636,60,0.036,2.71e-09,1221000000.0,245.0,25
137.0,22.9250411987,60,0.036,2.71e-09,1221000000.0,245.0,25
138.0,22.93381309507,60,0.036,2.71e-09,1221000000.0,245.0,25
139.0,22.94258499144,60,0.036,2.71e-09,1221000000.0,245.0,25
140.0,22.95135688781,60,0.036,2.71e-09,1221000000.0,245.0,25
141.0,22.96012878418,60,0.036,2.71e-09,1221000000.0,245.0,25
142.0,22.96890068055,60,0.036,2.71e-09,1221000000.0,245.0,25
143.0,22.97767257692,60,0.036,2.71e-09,1221000000.0,245.0,25
144.0,22.98644447329,60,0.036,2.71e-09,1221000000.0,245.0,25
145.0,22.99521636966,60,0.036,2.71e-09,1221000000.0,245.0,25
146.0,23.00398826603,60,0.036,2.71e-09,1221000000.0,245.0,25
147.0,23.0127601624,60,0.036,2.71e-09,1221000000.0,245.0,25
148.0,23.02151126866,60,0.036,2.71e-09,1221000000.0,245.0,25
149.0,23.03026237492,60,0.036,2.71e-09,1221000000.0,245.0,25
150.0,23.03901348118,60,0.036,2.71e-09,1221000000.0,245.0,25
151.0,23.04776458744,60,0.036,2.71e-09,1221000000.0,245.0,25
152.0,23.0565156937,60,0.036,2.71e-09,1221000000.0,245.0,25
153.0,23.06526679996,60,0.036,2.71e-09,1221000000.0,245.0,25
154.0,23.07401790622,60,0.036,2.71e-09,1221000000.0,245.0,25
155.0,23.08276901248,60,0.036,2.71e-09,1221000000.0,245.0,25
156.0,23.09152011874,60,0.036,2.71e-09,1221000000.0,245.0,25
157.0,23.100271225,60,0.036,2.71e-09,1221000000.0,245.0,25
158.0,23.10900192263,60,0.036,2.71e-09,1221000000.0,245.0,25
159.0,23.11773262026,60,0.036,2.71e-09,1221000000.0,245.0,25
160.0,23.12646331789,60,0.036,2.71e-09,1221000000.0,245.0,25
161.0,23.13519401552,60,0.036,2.71e-09,1221000000.0,245.0,25
162.0,23.14392471315,60,0.036,2.71e-09,1221000000.0,245.0,25
163.0,23.15265541078,60,0.036,2.71e-09,1221000000.0,245.0,25
164.0,23.16138610841,60,0.036,2.71e-09,1221000000.0,245.0,25
165.0,23.17011680604,60,0.036,2.71e-09,1221000000.0,245.0,25
166.0,23.17884750367,60,0.036,2.71e-09,1221000000.0,245.0,25
167.0,23.1875782013,60,0.036,2.71e-09,1221000000.0,245.0,25
168.0,23.19628887177,60,0.036,2.71e-09,1221000000.0,245.0,25
169.0,23.20499954224,60,0.036,2.71e-09,1221000000.0,245.0,25
170.0,23.21371021271,60,0.036,2.71e-09,1221000000.0,245.0,25
171.0,23.22242088318,60,0.036,2.71e-09,1221000000.0,245.0,25
172.0,23.23113155365,60,0.036,2.71e-09,1221000000.0,245.0,25
173.0,23.23984222412,60,0.036,2.71e-09,1221000000.0,245.0,25
174.0,23.24855289459,60,0.036,2.71e-09,1221000000.0,245.0,25
175.0,23.25726356506,60,0.036,2.71e-09,1221000000.0,245.0,25
176.0,23.26597423553,60,0.036,2.71e-09,1221000000.0,245.0,25
177.0,23.274684906,60,0.036,2.71e-09,1221000000.0,245.0,25
178.0,23.28337516784,60,0.036,2.71e-09,1221000000.0,245.0,25
179.0,23.29206542968,60,0.036,2.71e-09,1221000000.0,245.0,25
180.0,23.30075569152,60,0.036,2.71e-09,1221000000.0,245.0,25
181.0,23.30944595336,60,0.036,2.71e-09,1221000000.0,245.0,25
182.0,23.3181362152,60,0.036,2.71e-09,1221000000.0,245.0,25
183.0,23.32682647704,60,0.036,2.71e-09,1221000000.0,245.0,25
184.0,23.33551673888,60,0.036,2.71e-09,1221000000.0,245.0,25
185.0,23.34420700072,60,0.036,2.71e-09,1221000000.0,245.0,25
186.0,23.35289726256,60,0.036,2.71e-09,1221000000.0,245.0,25
187.0,23.3615875244,60,0.036,2.71e-09,1221000000.0,245.0,25
188.0,23.37025756835,60,0.036,2.71e-09,1221000000.0,245.0,25
189.0,23.3789276123,60,0.036,2.71e-09,1221000000.0,245.0,25
190.0,23.38759765625,60,0.036,2.71e-09,1221000000.0,245.0,25
191.0,23.3962677002,60,0.036,2.71e-09,1221000000.0,245.0,25
192.0,23.40493774415,60,0.036,2.71e-09,1221000000.0,245.0,25
193.0,23.4136077881,60,0.036,2.71e-09,1221000000.0,245.0,25
194.0,23.42227783205,60,0.036,2.71e-09,1221000000.0,245.0,25
195.0,23.430947876,60,0.036,2.71e-09,1221000000.0,245.0,25
196.0,23.43961791995,60,0.036,2.71e-09,1221000000.0,245.0,25
197.0,23.4482879639,60,0.036,2.71e-09,1221000000.0,245.0,25
198.0,23.45693759921,60,0.036,2.71e-09,1221000000.0,245.0,25
199.0,23.46558723452,60,0.036,2.71e-09,1221000000.0,245.0,25
200.0,23.47423686983,60,0.036,2.71e-09,1221000000.0,245.0,25
201.0,23.48288650514,60,0.036,2.71e-09,1221000000.0,245.0,25
202.0,23.49153614045,60,0.036,2.71e-09,1221000000.0,245.0,25
203.0,23.50018577576,60,0.036,2.71e-09,1221000000.0,245.0,25
204.0,23.50883541107,60,0.036,2.71e-09,1221000000.0,245.0,25
205.0,23.51748504638,60,0.036,2.71e-09,1221000000.0,245.0,25
206.0,23.52613468169,60,0.036,2.71e-09,1221000000.0,245.0,25
207.0,23.534784317,60,0.036,2.71e-09,1221000000.0,245.0,25
208.0,23.54341373442,60,0.036,2.71e-09,1221000000.0,245.0,25
209.0,23.55204315184,60,0.036,2.71e-09,1221000000.0,245.0,25
210.0,23.56067256926,60,0.036,2.71e-09,1221000000.0,245.0,25
211.0,23.56930198668,60,0.036,2.71e-09,1221000000.0,245.0,25
212.0,23.5779314041,60,0.036,2.71e-09,1221000000.0,245.0,25
213.0,23.58656082152,60,0.036,2.71e-09,1221000000.0,245.0,25
214.0,23.59519023894,60,0.036,2.71e-09,1221000000.0,245.0,25
215.0,23.60381965636,60,0.036,2.71e-09,1221000000.0,245.0,25
216.0,23.61244907378,60,0.036,2.71e-09,1221000000.0,245.0,25
217.0,23.6210784912,60,0.036,2.71e-09,1221000000.0,245.0,25
218.0,23.62968769073,60,0.036,2.71e-09,1221000000.0,245.0,25
219.0,23.63829689026,60,0.036,2.71e-09,1221000000.0,245.0,25
220.0,23.64690608979,60,0.036,2.71e-09,1221000000.0,245.0,25
221.0,23.65551528932,60,0.036,2.71e-09,1221000000.0,245.0,25
222.0,23.66412448885,60,0.036,2.71e-09,1221000000.0,245.0,25
223.0,23.67273368838,60,0.036,2.71e-09,1221000000.0,245.0,25
224.0,23.68134288791,60,0.036,2.71e-09,1221000000.0,245.0,25
225.0,23.68995208744,60,0.036,2.71e-09,1221000000.0,245.0,25
226.0,23.69856128697,60,0.036,2.71e-09,1221000000.0,245.0,25
227.0,23.7071704865,60,0.036,2.71e-09,1221000000.0,245.0,25
228.0,23.71575927739,60,0.036,2.71e-09,1221000000.0,245.0,25
229.0,23.72434806828,60,0.036,2.71e-09,1221000000.0,245.0,25
230.0,23.73293685917,60,0.036,2.71e-09,1221000000.0,245.0,25
231.0,23.74152565006,60,0.036,2.71e-09,1221000000.0,245.0,25
232.0,23.75011444095,60,0.036,2.71e-09,1221000000.0,245.0,25
233.0,23.75870323184,60,0.036,2.71e-09,1221000000.0,245.0,25
234.0,23.76729202273,60,0.036,2.71e-09,1221000000.0,245.0,25
235.0,23.77588081362,60,0.036,2.71e-09,1221000000.0,245.0,25
236.0,23.78446960451,60,0.036,2.71e-09,1221000000.0,245.0,25
237.0,23.7930583954,60,0.036,2.71e-09,1221000000.0,245.0,25
238.0,23.8016269684,60,0.036,2.71e-09,1221000000.0,245.0,25
239.0,23.8101955414,60,0.036,2.71e-09,1221000000.0,245.0,25
240.0,23.8187641144,60,0.036,2.71e-09,1221000000.0,245.0,25
241.0,23.8273326874,60,0.036,2.71e-09,1221000000.0,245.0,25
242.0,23.8359012604,60,0.036,2.71e-09,1221000000.0,245.0,25
243.0,23.8444698334,60,0.036,2.71e-09,1221000000.0,245.0,25
244.0,23.8530384064,60,0.036,2.71e-09,1221000000.0,245.0,25
245.0,23.8616069794,60,0.036,2.71e-09,1221000000.0,245.0,25
246.0,23.8701755524,60,0.036,2.71e-09,1221000000.0,245.0,25
247.0,23.8787441254,60,0.036,2.71e-09,1221000000.0,245.0,25
248.0,23.8872924805,60,0.036,2.71e-09,1221000000.0,245.0,25
249.0,23.8958408356,60,0.036,2.71e-09,1221000000.0,245.0,25
250.0,23.9043891907,60,0.036,2.71e-09,1221000000.0,245.0,25
251.0,23.9129375458,60,0.036,2.71e-09,1221000000.0,245.0,25
252.0,23.9214859009,60,0.036,2.71e-09,1221000000.0,245.0,25
253.0,23.930034256,60,0.036,2.71e-09,1221000000.0,245.0,25
254.0,23.9385826111,60,0.036,2.71e-09,1221000000.0,245.0,25
255.0,23.9471309662,60,0.036,2.71e-09,1221000000.0,245.0,25
256.0,23.9556793213,60,0.036,2.71e-09,1221000000.0,245.0,25
257.0,23.9642276764,60,0.036,2.71e-09,1221000000.0,245.0,25
258.0,23.97275600434,60,0.036,2.71e-09,1221000000.0,245.0,25
259.0,23.98128433228,60,0.036,2.71e-09,1221000000.0,245.0,25
260.0,23.98981266022,60,0.036,2.71e-09,1221000000.0,245.0,25
261.0,23.99834098816,60,0.036,2.71e-09,1221000000.0,245.0,25
262.0,24.0068693161,60,0.036,2.71e-09,1221000000.0,245.0,25
263.0,24.01539764404,60,0.036,2.71e-09,1221000000.0,245.0,25
264.0,24.02392597198,60,0.036,2.71e-09,1221000000.0,245.0,25
265.0,24.03245429992,60,0.036,2.71e-09,1221000000.0,245.0,25
266.0,24.04098262786,60,0.036,2.71e-09,1221000000.0,245.0,25
267.0,24.0495109558,60,0.036,2.71e-09,1221000000.0,245.0,25
268.0,24.05801887511,60,0.036,2.71e-09,1221000000.0,245.0,25
269.0,24.06652679442,60,0.036,2.71e-09,1221000000.0,245.0,25
270.0,24.07503471373,60,0.036,2.71e-09,1221000000.0,245.0,25
271.0,24.08354263304,60,0.036,2.71e-09,1221000000.0,245.0,25
272.0,24.09205055235,60,0.036,2.71e-09,1221000000.0,245.0,25
273.0,24.10055847166,60,0.036,2.71e-09,1221000000.0,245.0,25
274.0,24.10906639097,60,0.036,2.71e-09,1221000000.0,245.0,25
275.0,24.11757431028,60,0.036,2.71e-09,1221000000.0,245.0,25
276.0,24.12608222959,60,0.036,2.71e-09,1221000000.0,245.0,25
277.0,24.1345901489,60,0.036,2.71e-09,1221000000.0,245.0,25
278.0,24.14307804105,60,0.036,2.71e-09,1221000000.0,245.0,25
279.0,24.1515659332,60,0.036,2.71e-09,1221000000.0,245.0,25
280.0,24.16005382535,60,0.036,2.71e-09,1221000000.0,245.0,25
281.0,24.1685417175,60,0.036,2.71e-09,1221000000.0,245.0,25
282.0,24.17702960965,60,0.036,2.71e-09,1221000000.0,245.0,25
283.0,24.1855175018,60,0.036,2.71e-09,1221000000.0,245.0,25
284.0,24.19400539395,60,0.036,2.71e-09,1221000000.0,245.0,25
285.0,24.2024932861,60,0.036,2.71e-09,1221000000.0,245.0,25
286.0,24.21098117825,60,0.036,2.71e-09,1221000000.0,245.0,25
287.0,24.2194690704,60,0.036,2.71e-09,1221000000.0,245.0,25
288.0,24.22793693539,60,0.036,2.71e-09,1221000000.0,245.0,25
289.0,24.23640480038,60,0.036,2.71e-09,1221000000.0,245.0,25
290.0,24.24487266537,60,0.036,2.71e-09,1221000000.0,245.0,25
291.0,24.25334053036,60,0.036,2.71e-09,1221000000.0,245.0,25
292.0,24.26180839535,60,0.036,2.71e-09,1221000000.0,245.0,25
293.0,24.27027626034,60,0.036,2.71e-09,1221000000.0,245.0,25
294.0,24.27874412533,60,0.036,2.71e-09,1221000000.0,245.0,25
295.0,24.28721199032,60,0.036,2.71e-09,1221000000.0,245.0,25
296.0,24.29567985531,60,0.036,2.71e-09,1221000000.0,245.0,25
297.0,24.3041477203,60,0.036,2.71e-09,1221000000.0,245.0,25
298.0,24.31259555813,60,0.036,2.71e-09,1221000000.0,245.0,25
299.0,24.32104339596,60,0.036,2.71e-09,1221000000.0,245.0,25
300.0,24.32949123379,60,0.036,2.71e-09,1221000000.0,245.0,25
301.0,24.33793907162,60,0.036,2.71e-09,1221000000.0,245.0,25
302.0,24.34638690945,60,0.036,2.71e-09,1221000000.0,245.0,25
303.0,24.35483474728,60,0.036,2.71e-09,1221000000.0,245.0,25
304.0,24.36328258511,60,0.036,2.71e-09,1221000000.0,245.0,25
305.0,24.37173042294,60,0.036,2.71e-09,1221000000.0,245.0,25
306.0,24.38017826077,60,0.036,2.71e-09,1221000000.0,245.0,25
307.0,24.3886260986,60,0.036,2.71e-09,1221000000.0,245.0,25
308.0,24.39705390927,60,0.036,2.71e-09,1221000000.0,245.0,25
309.0,24.40548171994,60,0.036,2.71e-09,1221000000.0,245.0,25
310.0,24.41390953061,60,0.036,2.71e-09,1221000000.0,245.0,25
311.0,24.42233734128,60,0.036,2.71e-09,1221000000.0,245.0,25
312.0,24.43076515195,60,0.036,2.71e-09,1221000000.0,245.0,25
313.0,24.43919296262,60,0.036,2.71e-09,1221000000.0,245.0,25
314.0,24.44762077329,60,0.036,2.71e-09,1221000000.0,245.0,25
315.0,24.45604858396,60,0.036,2.71e-09,1221000000.0,245.0,25
316.0,24.46447639463,60,0.036,2.71e-09,1221000000.0,245.0,25
317.0,24.4729042053,60,0.036,2.71e-09,1221000000.0,245.0,25
318.0,24.48131217955,60,0.036,2.71e-09,1221000000.0,245.0,25
319.0,24.4897201538,60,0.036,2.71e-09,1221000000.0,245.0,25
320.0,24.49812812805,60,0.036,2.71e-09,1221000000.0,245.0,25
321.0,24.5065361023,60,0.036,2.71e-09,1221000000.0,245.0,25
322.0,24.51494407655,60,0.036,2.71e-09,1221000000.0,245.0,25
323.0,24.5233520508,60,0.036,2.71e-09,1221000000.0,245.0,25
324.0,24.53176002505,60,0.036,2.71e-09,1221000000.0,245.0,25
325.0,24.5401679993,60,0.036,2.71e-09,1221000000.0,245.0,25
