time,T_int,T_ext_1,Film_Coef,Density,Specific_Heat,Thermal_Conductivity,Radius
1.0,21.9801044464,22.88,0.036,7.87e-09,386000000.0,72.0,15
2.0,21.9639606476,23.76,0.036,7.87e-09,386000000.0,72.0,15
3.0,21.9505119324,24.64,0.036,7.87e-09,386000000.0,72.0,15
4.0,21.94052410125,25.52,0.036,7.87e-09,386000000.0,72.0,15
5.0,21.9305362701,26.4,0.036,7.87e-09,386000000.0,72.0,15
6.0,21.92511749265,27.28,0.036,7.87e-09,386000000.0,72.0,15
7.0,21.9196987152,28.16,0.036,7.87e-09,386000000.0,72.0,15
8.0,21.91427993775,29.04,0.036,7.87e-09,386000000.0,72.0,15
9.0,21.9088611603,29.92,0.036,7.87e-09,386000000.0,72.0,15
10.0,21.9105288982625,30.8,0.036,7.87e-09,386000000.0,72.0,15
11.0,21.912196636225,31.68,0.036,7.87e-09,386000000.0,72.0,15
12.0,21.9138643741875,32.56,0.036,7.87e-09,386000000.0,72.0,15
13.0,21.91553211215,33.44,0.036,7.87e-09,386000000.0,72.0,15
14.0,21.9171998501125,34.32,0.036,7.87e-09,386000000.0,72.0,15
15.0,21.918867588075,35.2,0.036,7.87e-09,386000000.0,72.0,15
16.0,21.9205353260375,36.08,0.036,7.87e-09,386000000.0,72.0,15
17.0,21.922203064,36.96,0.036,7.87e-09,386000000.0,72.0,15
18.0,21.93195457462,37.84,0.036,7.87e-09,386000000.0,72.0,15
19.0,21.94170608524,38.72,0.036,7.87e-09,386000000.0,72.0,15
20.0,21.95145759586,39.6,0.036,7.87e-09,386000000.0,72.0,15
21.0,21.96120910648,40.48,0.036,7.87e-09,386000000.0,72.0,15
22.0,21.9709606171,41.36,0.036,7.87e-09,386000000.0,72.0,15
23.0,21.98071212772,42.24,0.036,7.87e-09,386000000.0,72.0,15
24.0,21.99046363834,43.12,0.036,7.87e-09,386000000.0,72.0,15
25.0,22.00021514896,44.0,0.036,7.87e-09,386000000.0,72.0,15
26.0,22.00996665958,44.88,0.036,7.87e-09,386000000.0,72.0,15
27.0,22.0197181702,45.76,0.036,7.87e-09,386000000.0,72.0,15
28.0,22.03731575015,46.64,0.036,7.87e-09,386000000.0,72.0,15
29.0,22.0549133301,47.52,0.036,7.87e-09,386000000.0,72.0,15
30.0,22.07251091005,48.4,0.036,7.87e-09,386000000.0,72.0,15
31.0,22.09010849,49.28,0.036,7.87e-09,386000000.0,72.0,15
32.0,22.10770606995,50.16,0.036,7.87e-09,386000000.0,72.0,15
33.0,22.1253036499,51.04,0.036,7.87e-09,386000000.0,72.0,15
34.0,22.14290122985,51.92,0.036,7.87e-09,386000000.0,72.0,15
35.0,22.1604988098,52.8,0.036,7.87e-09,386000000.0,72.0,15
36.0,22.17809638975,53.68,0.036,7.87e-09,386000000.0,72.0,15
37.0,22.1956939697,54.56,0.036,7.87e-09,386000000.0,72.0,15
38.0,22.2210474014,55.44,0.036,7.87e-09,386000000.0,72.0,15
39.0,22.2464008331,56.32,0.036,7.87e-09,386000000.0,72.0,15
40.0,22.2717542648,57.2,0.036,7.87e-09,386000000.0,72.0,15
41.0,22.2971076965,58.08,0.036,7.87e-09,386000000.0,72.0,15
42.0,22.3224611282,58.96,0.036,7.87e-09,386000000.0,72.0,15
43.0,22.3478145599,59.84,0.036,7.87e-09,386000000.0,72.0,15
44.0,22.3731679916,60.72,0.036,7.87e-09,386000000.0,72.0,15
45.0,22.3985214233,61.6,0.036,7.87e-09,386000000.0,72.0,15
46.0,22.423874855,62.48,0.036,7.87e-09,386000000.0,72.0,15
47.0,22.4492282867,63.36,0.036,7.87e-09,386000000.0,72.0,15
48.0,22.47530059811,64.24,0.036,7.87e-09,386000000.0,72.0,15
49.0,22.50137290952,65.12,0.036,7.87e-09,386000000.0,72.0,15
50.0,22.52744522093,66.0,0.036,7.87e-09,386000000.0,72.0,15
51.0,22.55351753234,62.94,0.036,7.87e-09,386000000.0,72.0,15
52.0,22.57958984375,62.88,0.036,7.87e-09,386000000.0,72.0,15
53.0,22.60566215516,62.82,0.036,7.87e-09,386000000.0,72.0,15
54.0,22.63173446657,62.76,0.036,7.87e-09,386000000.0,72.0,15
55.0,22.65780677798,62.7,0.036,7.87e-09,386000000.0,72.0,15
56.0,22.68387908939,62.64,0.036,7.87e-09,386000000.0,72.0,15
57.0,22.7099514008,62.58,0.036,7.87e-09,386000000.0,72.0,15
58.0,22.73453598026,62.52,0.036,7.87e-09,386000000.0,72.0,15
59.0,22.75912055972,62.46,0.036,7.87e-09,386000000.0,72.0,15
60.0,22.78370513918,62.4,0.036,7.87e-09,386000000.0,72.0,15
61.0,22.80828971864,62.34,0.036,7.87e-09,386000000.0,72.0,15
62.0,22.8328742981,62.28,0.036,7.87e-09,386000000.0,72.0,15
63.0,22.85745887756,62.22,0.036,7.87e-09,386000000.0,72.0,15
64.0,22.88204345702,62.16,0.036,7.87e-09,386000000.0,72.0,15
65.0,22.90662803648,62.1,0.036,7.87e-09,386000000.0,72.0,15
66.0,22.93121261594,62.04,0.036,7.87e-09,386000000.0,72.0,15
67.0,22.9557971954,61.98,0.036,7.87e-09,386000000.0,72.0,15
68.0,22.97940998074,61.92,0.036,7.87e-09,386000000.0,72.0,15
69.0,23.00302276608,61.86,0.036,7.87e-09,386000000.0,72.0,15
70.0,23.02663555142,61.8,0.036,7.87e-09,386000000.0,72.0,15
71.0,23.05024833676,61.74,0.036,7.87e-09,386000000.0,72.0,15
72.0,23.0738611221,61.68,0.036,7.87e-09,386000000.0,72.0,15
73.0,23.09747390744,61.62,0.036,7.87e-09,386000000.0,72.0,15
74.0,23.12108669278,61.56,0.036,7.87e-09,386000000.0,72.0,15
75.0,23.14469947812,61.5,0.036,7.87e-09,386000000.0,72.0,15
76.0,23.16831226346,61.44,0.036,7.87e-09,386000000.0,72.0,15
77.0,23.1919250488,61.38,0.036,7.87e-09,386000000.0,72.0,15
78.0,23.21468315122,61.32,0.036,7.87e-09,386000000.0,72.0,15
79.0,23.23744125364,61.26,0.036,7.87e-09,386000000.0,72.0,15
80.0,23.26019935606,61.2,0.036,7.87e-09,386000000.0,72.0,15
81.0,23.28295745848,61.14,0.036,7.87e-09,386000000.0,72.0,15
82.0,23.3057155609,61.08,0.036,7.87e-09,386000000.0,72.0,15
83.0,23.32847366332,61.02,0.036,7.87e-09,386000000.0,72.0,15
84.0,23.35123176574,60.96,0.036,7.87e-09,386000000.0,72.0,15
85.0,23.37398986816,60.9,0.036,7.87e-09,386000000.0,72.0,15
86.0,23.39674797058,60.84,0.036,7.87e-09,386000000.0,72.0,15
87.0,23.419506073,60.78,0.036,7.87e-09,386000000.0,72.0,15
88.0,23.44143695831,60.72,0.036,7.87e-09,386000000.0,72.0,15
89.0,23.46336784362,60.66,0.036,7.87e-09,386000000.0,72.0,15
90.0,23.48529872893,60.6,0.036,7.87e-09,386000000.0,72.0,15
91.0,23.50722961424,60.54,0.036,7.87e-09,386000000.0,72.0,15
92.0,23.52916049955,60.48,0.036,7.87e-09,386000000.0,72.0,15
93.0,23.55109138486,60.42,0.036,7.87e-09,386000000.0,72.0,15
94.0,23.57302227017,60.36,0.036,7.87e-09,386000000.0,72.0,15
95.0,23.59495315548,60.3,0.036,7.87e-09,386000000.0,72.0,15
96.0,23.61688404079,60.24,0.036,7.87e-09,386000000.0,72.0,15
97.0,23.6388149261,60.18,0.036,7.87e-09,386000000.0,72.0,15
98.0,23.66050586696,60.12,0.036,7.87e-09,386000000.0,72.0,15
99.0,23.68219680782,60.06,0.036,7.87e-09,386000000.0,72.0,15
100.0,23.70388774868,60.0,0.036,7.87e-09,386000000.0,72.0,15
101.0,23.72557868954,60,0.036,7.87e-09,386000000.0,72.0,15
102.0,23.7472696304,60,0.036,7.87e-09,386000000.0,72.0,15
103.0,23.76896057126,60,0.036,7.87e-09,386000000.0,72.0,15
104.0,23.79065151212,60,0.036,7.87e-09,386000000.0,72.0,15
105.0,23.81234245298,60,0.036,7.87e-09,386000000.0,72.0,15
106.0,23.83403339384,60,0.036,7.87e-09,386000000.0,72.0,15
107.0,23.8557243347,60,0.036,7.87e-09,386000000.0,72.0,15
108.0,23.87735557555,60,0.036,7.87e-09,386000000.0,72.0,15
109.0,23.8989868164,60,0.036,7.87e-09,386000000.0,72.0,15
110.0,23.92061805725,60,0.036,7.87e-09,386000000.0,72.0,15
111.0,23.9422492981,60,0.036,7.87e-09,386000000.0,72.0,15
112.0,23.96388053895,60,0.036,7.87e-09,386000000.0,72.0,15
113.0,23.9855117798,60,0.036,7.87e-09,386000000.0,72.0,15
114.0,24.00714302065,60,0.036,7.87e-09,386000000.0,72.0,15
115.0,24.0287742615,60,0.036,7.87e-09,386000000.0,72.0,15
116.0,24.05040550235,60,0.036,7.87e-09,386000000.0,72.0,15
117.0,24.0720367432,60,0.036,7.87e-09,386000000.0,72.0,15
118.0,24.09356136325,60,0.036,7.87e-09,386000000.0,72.0,15
119.0,24.1150859833,60,0.036,7.87e-09,386000000.0,72.0,15
120.0,24.13661060335,60,0.036,7.87e-09,386000000.0,72.0,15
121.0,24.1581352234,60,0.036,7.87e-09,386000000.0,72.0,15
122.0,24.17965984345,60,0.036,7.87e-09,386000000.0,72.0,15
123.0,24.2011844635,60,0.036,7.87e-09,386000000.0,72.0,15
124.0,24.22270908355,60,0.036,7.87e-09,386000000.0,72.0,15
125.0,24.2442337036,60,0.036,7.87e-09,386000000.0,72.0,15
126.0,24.26575832365,60,0.036,7.87e-09,386000000.0,72.0,15
127.0,24.2872829437,60,0.036,7.87e-09,386000000.0,72.0,15
128.0,24.3086885452,60,0.036,7.87e-09,386000000.0,72.0,15
129.0,24.3300941467,60,0.036,7.87e-09,386000000.0,72.0,15
130.0,24.3514997482,60,0.036,7.87e-09,386000000.0,72.0,15
131.0,24.3729053497,60,0.036,7.87e-09,386000000.0,72.0,15
132.0,24.3943109512,60,0.036,7.87e-09,386000000.0,72.0,15
133.0,24.4157165527,60,0.036,7.87e-09,386000000.0,72.0,15
134.0,24.4371221542,60,0.036,7.87e-09,386000000.0,72.0,15
135.0,24.4585277557,60,0.036,7.87e-09,386000000.0,72.0,15
136.0,24.4799333572,60,0.036,7.87e-09,386000000.0,72.0,15
137.0,24.5013389587,60,0.036,7.87e-09,386000000.0,72.0,15
138.0,24.52262096401,60,0.036,7.87e-09,386000000.0,72.0,15
139.0,24.54390296932,60,0.036,7.87e-09,386000000.0,72.0,15
140.0,24.56518497463,60,0.036,7.87e-09,386000000.0,72.0,15
141.0,24.58646697994,60,0.036,7.87e-09,386000000.0,72.0,15
142.0,24.60774898525,60,0.036,7.87e-09,386000000.0,72.0,15
143.0,24.62903099056,60,0.036,7.87e-09,386000000.0,72.0,15
144.0,24.65031299587,60,0.036,7.87e-09,386000000.0,72.0,15
145.0,24.67159500118,60,0.036,7.87e-09,386000000.0,72.0,15
146.0,24.69287700649,60,0.036,7.87e-09,386000000.0,72.0,15
147.0,24.7141590118,60,0.036,7.87e-09,386000000.0,72.0,15
148.0,24.73531646725,60,0.036,7.87e-09,386000000.0,72.0,15
149.0,24.7564739227,60,0.036,7.87e-09,386000000.0,72.0,15
150.0,24.77763137815,60,0.036,7.87e-09,386000000.0,72.0,15
151.0,24.7987888336,60,0.036,7.87e-09,386000000.0,72.0,15
152.0,24.81994628905,60,0.036,7.87e-09,386000000.0,72.0,15
153.0,24.8411037445,60,0.036,7.87e-09,386000000.0,72.0,15
154.0,24.86226119995,60,0.036,7.87e-09,386000000.0,72.0,15
155.0,24.8834186554,60,0.036,7.87e-09,386000000.0,72.0,15
156.0,24.90457611085,60,0.036,7.87e-09,386000000.0,72.0,15
157.0,24.9257335663,60,0.036,7.87e-09,386000000.0,72.0,15
158.0,24.9467655182,60,0.036,7.87e-09,386000000.0,72.0,15
159.0,24.9677974701,60,0.036,7.87e-09,386000000.0,72.0,15
160.0,24.988829422,60,0.036,7.87e-09,386000000.0,72.0,15
161.0,25.0098613739,60,0.036,7.87e-09,386000000.0,72.0,15
162.0,25.0308933258,60,0.036,7.87e-09,386000000.0,72.0,15
163.0,25.0519252777,60,0.036,7.87e-09,386000000.0,72.0,15
164.0,25.0729572296,60,0.036,7.87e-09,386000000.0,72.0,15
165.0,25.0939891815,60,0.036,7.87e-09,386000000.0,72.0,15
166.0,25.1150211334,60,0.036,7.87e-09,386000000.0,72.0,15
167.0,25.1360530853,60,0.036,7.87e-09,386000000.0,72.0,15
168.0,25.15696029661,60,0.036,7.87e-09,386000000.0,72.0,15
169.0,25.17786750792,60,0.036,7.87e-09,386000000.0,72.0,15
170.0,25.19877471923,60,0.036,7.87e-09,386000000.0,72.0,15
171.0,25.21968193054,60,0.036,7.87e-09,386000000.0,72.0,15
172.0,25.24058914185,60,0.036,7.87e-09,386000000.0,72.0,15
173.0,25.26149635316,60,0.036,7.87e-09,386000000.0,72.0,15
174.0,25.28240356447,60,0.036,7.87e-09,386000000.0,72.0,15
175.0,25.30331077578,60,0.036,7.87e-09,386000000.0,72.0,15
176.0,25.32421798709,60,0.036,7.87e-09,386000000.0,72.0,15
177.0,25.3451251984,60,0.036,7.87e-09,386000000.0,72.0,15
178.0,25.3659076691,60,0.036,7.87e-09,386000000.0,72.0,15
179.0,25.3866901398,60,0.036,7.87e-09,386000000.0,72.0,15
180.0,25.4074726105,60,0.036,7.87e-09,386000000.0,72.0,15
181.0,25.4282550812,60,0.036,7.87e-09,386000000.0,72.0,15
182.0,25.4490375519,60,0.036,7.87e-09,386000000.0,72.0,15
183.0,25.4698200226,60,0.036,7.87e-09,386000000.0,72.0,15
184.0,25.4906024933,60,0.036,7.87e-09,386000000.0,72.0,15
185.0,25.511384964,60,0.036,7.87e-09,386000000.0,72.0,15
186.0,25.5321674347,60,0.036,7.87e-09,386000000.0,72.0,15
187.0,25.5529499054,60,0.036,7.87e-09,386000000.0,72.0,15
188.0,25.57360820771,60,0.036,7.87e-09,386000000.0,72.0,15
189.0,25.59426651002,60,0.036,7.87e-09,386000000.0,72.0,15
190.0,25.61492481233,60,0.036,7.87e-09,386000000.0,72.0,15
191.0,25.63558311464,60,0.036,7.87e-09,386000000.0,72.0,15
192.0,25.65624141695,60,0.036,7.87e-09,386000000.0,72.0,15
193.0,25.67689971926,60,0.036,7.87e-09,386000000.0,72.0,15
194.0,25.69755802157,60,0.036,7.87e-09,386000000.0,72.0,15
195.0,25.71821632388,60,0.036,7.87e-09,386000000.0,72.0,15
196.0,25.73887462619,60,0.036,7.87e-09,386000000.0,72.0,15
197.0,25.7595329285,60,0.036,7.87e-09,386000000.0,72.0,15
198.0,25.78006763461,60,0.036,7.87e-09,386000000.0,72.0,15
199.0,25.80060234072,60,0.036,7.87e-09,386000000.0,72.0,15
200.0,25.82113704683,60,0.036,7.87e-09,386000000.0,72.0,15
201.0,25.84167175294,60,0.036,7.87e-09,386000000.0,72.0,15
202.0,25.86220645905,60,0.036,7.87e-09,386000000.0,72.0,15
203.0,25.88274116516,60,0.036,7.87e-09,386000000.0,72.0,15
204.0,25.90327587127,60,0.036,7.87e-09,386000000.0,72.0,15
205.0,25.92381057738,60,0.036,7.87e-09,386000000.0,72.0,15
206.0,25.94434528349,60,0.036,7.87e-09,386000000.0,72.0,15
207.0,25.9648799896,60,0.036,7.87e-09,386000000.0,72.0,15
208.0,25.98529167173,60,0.036,7.87e-09,386000000.0,72.0,15
209.0,26.00570335386,60,0.036,7.87e-09,386000000.0,72.0,15
210.0,26.02611503599,60,0.036,7.87e-09,386000000.0,72.0,15
211.0,26.04652671812,60,0.036,7.87e-09,386000000.0,72.0,15
212.0,26.06693840025,60,0.036,7.87e-09,386000000.0,72.0,15
213.0,26.08735008238,60,0.036,7.87e-09,386000000.0,72.0,15
214.0,26.10776176451,60,0.036,7.87e-09,386000000.0,72.0,15
215.0,26.12817344664,60,0.036,7.87e-09,386000000.0,72.0,15
216.0,26.14858512877,60,0.036,7.87e-09,386000000.0,72.0,15
217.0,26.1689968109,60,0.036,7.87e-09,386000000.0,72.0,15
218.0,26.18928642272,60,0.036,7.87e-09,386000000.0,72.0,15
219.0,26.20957603454,60,0.036,7.87e-09,386000000.0,72.0,15
220.0,26.22986564636,60,0.036,7.87e-09,386000000.0,72.0,15
221.0,26.25015525818,60,0.036,7.87e-09,386000000.0,72.0,15
222.0,26.27044487,60,0.036,7.87e-09,386000000.0,72.0,15
223.0,26.29073448182,60,0.036,7.87e-09,386000000.0,72.0,15
224.0,26.31102409364,60,0.036,7.87e-09,386000000.0,72.0,15
225.0,26.33131370546,60,0.036,7.87e-09,386000000.0,72.0,15
226.0,26.35160331728,60,0.036,7.87e-09,386000000.0,72.0,15
227.0,26.3718929291,60,0.036,7.87e-09,386000000.0,72.0,15
228.0,26.39206104281,60,0.036,7.87e-09,386000000.0,72.0,15
229.0,26.41222915652,60,0.036,7.87e-09,386000000.0,72.0,15
230.0,26.43239727023,60,0.036,7.87e-09,386000000.0,72.0,15
231.0,26.45256538394,60,0.036,7.87e-09,386000000.0,72.0,15
232.0,26.47273349765,60,0.036,7.87e-09,386000000.0,72.0,15
233.0,26.49290161136,60,0.036,7.87e-09,386000000.0,72.0,15
234.0,26.51306972507,60,0.036,7.87e-09,386000000.0,72.0,15
235.0,26.53323783878,60,0.036,7.87e-09,386000000.0,72.0,15
236.0,26.55340595249,60,0.036,7.87e-09,386000000.0,72.0,15
237.0,26.5735740662,60,0.036,7.87e-09,386000000.0,72.0,15
238.0,26.59362106327,60,0.036,7.87e-09,386000000.0,72.0,15
239.0,26.61366806034,60,0.036,7.87e-09,386000000.0,72.0,15
240.0,26.63371505741,60,0.036,7.87e-09,386000000.0,72.0,15
241.0,26.65376205448,60,0.036,7.87e-09,386000000.0,72.0,15
242.0,26.67380905155,60,0.036,7.87e-09,386000000.0,72.0,15
243.0,26.69385604862,60,0.036,7.87e-09,386000000.0,72.0,15
244.0,26.71390304569,60,0.036,7.87e-09,386000000.0,72.0,15
245.0,26.73395004276,60,0.036,7.87e-09,386000000.0,72.0,15
246.0,26.75399703983,60,0.036,7.87e-09,386000000.0,72.0,15
247.0,26.7740440369,60,0.036,7.87e-09,386000000.0,72.0,15
248.0,26.79397106174,60,0.036,7.87e-09,386000000.0,72.0,15
249.0,26.81389808658,60,0.036,7.87e-09,386000000.0,72.0,15
250.0,26.83382511142,60,0.036,7.87e-09,386000000.0,72.0,15
251.0,26.85375213626,60,0.036,7.87e-09,386000000.0,72.0,15
252.0,26.8736791611,60,0.036,7.87e-09,386000000.0,72.0,15
253.0,26.89360618594,60,0.036,7.87e-09,386000000.0,72.0,15
254.0,26.91353321078,60,0.036,7.87e-09,386000000.0,72.0,15
255.0,26.93346023562,60,0.036,7.87e-09,386000000.0,72.0,15
256.0,26.95338726046,60,0.036,7.87e-09,386000000.0,72.0,15
257.0,26.9733142853,60,0.036,7.87e-09,386000000.0,72.0,15
258.0,26.99312171938,60,0.036,7.87e-09,386000000.0,72.0,15
259.0,27.01292915346,60,0.036,7.87e-09,386000000.0,72.0,15
260.0,27.03273658754,60,0.036,7.87e-09,386000000.0,72.0,15
261.0,27.05254402162,60,0.036,7.87e-09,386000000.0,72.0,15
262.0,27.0723514557,60,0.036,7.87e-09,386000000.0,72.0,15
263.0,27.09215888978,60,0.036,7.87e-09,386000000.0,72.0,15
264.0,27.11196632386,60,0.036,7.87e-09,386000000.0,72.0,15
265.0,27.13177375794,60,0.036,7.87e-09,386000000.0,72.0,15
266.0,27.15158119202,60,0.036,7.87e-09,386000000.0,72.0,15
267.0,27.1713886261,60,0.036,7.87e-09,386000000.0,72.0,15
268.0,27.1910774231,60,0.036,7.87e-09,386000000.0,72.0,15
269.0,27.2107662201,60,0.036,7.87e-09,386000000.0,72.0,15
270.0,27.2304550171,60,0.036,7.87e-09,386000000.0,72.0,15
271.0,27.2501438141,60,0.036,7.87e-09,386000000.0,72.0,15
272.0,27.2698326111,60,0.036,7.87e-09,386000000.0,72.0,15
273.0,27.2895214081,60,0.036,7.87e-09,386000000.0,72.0,15
274.0,27.3092102051,60,0.036,7.87e-09,386000000.0,72.0,15
275.0,27.3288990021,60,0.036,7.87e-09,386000000.0,72.0,15
276.0,27.3485877991,60,0.036,7.87e-09,386000000.0,72.0,15
277.0,27.3682765961,60,0.036,7.87e-09,386000000.0,72.0,15
278.0,27.38784713748,60,0.036,7.87e-09,386000000.0,72.0,15
279.0,27.40741767886,60,0.036,7.87e-09,386000000.0,72.0,15
280.0,27.42698822024,60,0.036,7.87e-09,386000000.0,72.0,15
281.0,27.44655876162,60,0.036,7.87e-09,386000000.0,72.0,15
282.0,27.466129303,60,0.036,7.87e-09,386000000.0,72.0,15
283.0,27.48569984438,60,0.036,7.87e-09,386000000.0,72.0,15
284.0,27.50527038576,60,0.036,7.87e-09,386000000.0,72.0,15
285.0,27.52484092714,60,0.036,7.87e-09,386000000.0,72.0,15
286.0,27.54441146852,60,0.036,7.87e-09,386000000.0,72.0,15
287.0,27.5639820099,60,0.036,7.87e-09,386000000.0,72.0,15
288.0,27.58343524934,60,0.036,7.87e-09,386000000.0,72.0,15
289.0,27.60288848878,60,0.036,7.87e-09,386000000.0,72.0,15
290.0,27.62234172822,60,0.036,7.87e-09,386000000.0,72.0,15
291.0,27.64179496766,60,0.036,7.87e-09,386000000.0,72.0,15
292.0,27.6612482071,60,0.036,7.87e-09,386000000.0,72.0,15
293.0,27.68070144654,60,0.036,7.87e-09,386000000.0,72.0,15
294.0,27.70015468598,60,0.036,7.87e-09,386000000.0,72.0,15
295.0,27.71960792542,60,0.036,7.87e-09,386000000.0,72.0,15
296.0,27.73906116486,60,0.036,7.87e-09,386000000.0,72.0,15
297.0,27.7585144043,60,0.036,7.87e-09,386000000.0,72.0,15
298.0,27.77785110474,60,0.036,7.87e-09,386000000.0,72.0,15
299.0,27.79718780518,60,0.036,7.87e-09,386000000.0,72.0,15
300.0,27.81652450562,60,0.036,7.87e-09,386000000.0,72.0,15
301.0,27.83586120606,60,0.036,7.87e-09,386000000.0,72.0,15
302.0,27.8551979065,60,0.036,7.87e-09,386000000.0,72.0,15
303.0,27.87453460694,60,0.036,7.87e-09,386000000.0,72.0,15
304.0,27.89387130738,60,0.036,7.87e-09,386000000.0,72.0,15
305.0,27.91320800782,60,0.036,7.87e-09,386000000.0,72.0,15
306.0,27.93254470826,60,0.036,7.87e-09,386000000.0,72.0,15
307.0,27.9518814087,60,0.036,7.87e-09,386000000.0,72.0,15
308.0,27.97110214234,60,0.036,7.87e-09,386000000.0,72.0,15
309.0,27.99032287598,60,0.036,7.87e-09,386000000.0,72.0,15
310.0,28.00954360962,60,0.036,7.87e-09,386000000.0,72.0,15
311.0,28.02876434326,60,0.036,7.87e-09,386000000.0,72.0,15
312.0,28.0479850769,60,0.036,7.87e-09,386000000.0,72.0,15
313.0,28.06720581054,60,0.036,7.87e-09,386000000.0,72.0,15
314.0,28.08642654418,60,0.036,7.87e-09,386000000.0,72.0,15
315.0,28.10564727782,60,0.036,7.87e-09,386000000.0,72.0,15
316.0,28.12486801146,60,0.036,7.87e-09,386000000.0,72.0,15
317.0,28.1440887451,60,0.036,7.87e-09,386000000.0,72.0,15
318.0,28.16319408415,60,0.036,7.87e-09,386000000.0,72.0,15
319.0,28.1822994232,60,0.036,7.87e-09,386000000.0,72.0,15
320.0,28.20140476225,60,0.036,7.87e-09,386000000.0,72.0,15
321.0,28.2205101013,60,0.036,7.87e-09,386000000.0,72.0,15
322.0,28.23961544035,60,0.036,7.87e-09,386000000.0,72.0,15
323.0,28.2587207794,60,0.036,7.87e-09,386000000.0,72.0,15
324.0,28.27782611845,60,0.036,7.87e-09,386000000.0,72.0,15
325.0,28.2969314575,60,0.036,7.87e-09,386000000.0,72.0,15
326.0,28.31603679655,60,0.036,7.87e-09,386000000.0,72.0,15
327.0,28.3351421356,60,0.036,7.87e-09,386000000.0,72.0,15
328.0,28.354132843,60,0.036,7.87e-09,386000000.0,72.0,15
329.0,28.3731235504,60,0.036,7.87e-09,386000000.0,72.0,15
330.0,28.3921142578,60,0.036,7.87e-09,386000000.0,72.0,15
331.0,28.4111049652,60,0.036,7.87e-09,386000000.0,72.0,15
332.0,28.4300956726,60,0.036,7.87e-09,386000000.0,72.0,15
333.0,28.44908638,60,0.036,7.87e-09,386000000.0,72.0,15
334.0,28.4680770874,60,0.036,7.87e-09,386000000.0,72.0,15
335.0,28.4870677948,60,0.036,7.87e-09,386000000.0,72.0,15
336.0,28.5060585022,60,0.036,7.87e-09,386000000.0,72.0,15
