time,T_int,T_ext_1,Film_Coef,Density,Specific_Heat,Thermal_Conductivity,Radius
1.0,21.9995441437,22.88,0.036,2.71e-09,921000000.0,205.0,25
2.0,21.9988250732,23.76,0.036,2.71e-09,921000000.0,205.0,25
3.0,21.9977684021,24.64,0.036,2.71e-09,921000000.0,205.0,25
4.0,21.99587249755,25.52,0.036,2.71e-09,921000000.0,205.0,25
5.0,21.993976593,26.4,0.036,2.71e-09,921000000.0,205.0,25
6.0,21.991208076475,27.28,0.036,2.71e-09,921000000.0,205.0,25
7.0,21.98843955995,28.16,0.036,2.71e-09,921000000.0,205.0,25
8.0,21.985671043425,29.04,0.036,2.71e-09,921000000.0,205.0,25
9.0,21.9829025269,29.92,0.036,2.71e-09,921000000.0,205.0,25
10.0,21.981200695075,30.8,0.036,2.71e-09,921000000.0,205.0,25
11.0,21.97949886325,31.68,0.036,2.71e-09,921000000.0,205.0,25
12.0,21.977797031425,32.56,0.036,2.71e-09,921000000.0,205.0,25
13.0,21.9760951996,33.44,0.036,2.71e-09,921000000.0,205.0,25
14.0,21.974393367775,34.32,0.036,2.71e-09,921000000.0,205.0,25
15.0,21.97269153595,35.2,0.036,2.71e-09,921000000.0,205.0,25
16.0,21.970989704125,36.08,0.036,2.71e-09,921000000.0,205.0,25
17.0,21.9692878723,36.96,0.036,2.71e-09,921000000.0,205.0,25
18.0,21.97085609435,37.84,0.036,2.71e-09,921000000.0,205.0,25
19.0,21.9724243164,38.72,0.036,2.71e-09,921000000.0,205.0,25
20.0,21.97399253845,39.6,0.036,2.71e-09,921000000.0,205.0,25
21.0,21.9755607605,40.48,0.036,2.71e-09,921000000.0,205.0,25
22.0,21.97712898255,41.36,0.036,2.71e-09,921000000.0,205.0,25
23.0,21.9786972046,42.24,0.036,2.71e-09,921000000.0,205.0,25
24.0,21.98026542665,43.12,0.036,2.71e-09,921000000.0,205.0,25
25.0,21.9818336487,44.0,0.036,2.71e-09,921000000.0,205.0,25
26.0,21.98340187075,44.88,0.036,2.71e-09,921000000.0,205.0,25
27.0,21.9849700928,45.76,0.036,2.71e-09,921000000.0,205.0,25
28.0,21.99055614474,46.64,0.036,2.71e-09,921000000.0,205.0,25
29.0,21.99614219668,47.52,0.036,2.71e-09,921000000.0,205.0,25
30.0,22.00172824862,48.4,0.036,2.71e-09,921000000.0,205.0,25
31.0,22.00731430056,49.28,0.036,2.71e-09,921000000.0,205.0,25
32.0,22.0129003525,50.16,0.036,2.71e-09,921000000.0,205.0,25
33.0,22.01848640444,51.04,0.036,2.71e-09,921000000.0,205.0,25
34.0,22.02407245638,51.92,0.036,2.71e-09,921000000.0,205.0,25
35.0,22.02965850832,52.8,0.036,2.71e-09,921000000.0,205.0,25
36.0,22.03524456026,53.68,0.036,2.71e-09,921000000.0,205.0,25
37.0,22.0408306122,54.56,0.036,2.71e-09,921000000.0,205.0,25
38.0,22.05071754457,55.44,0.036,2.71e-09,921000000.0,205.0,25
39.0,22.06060447694,56.32,0.036,2.71e-09,921000000.0,205.0,25
40.0,22.07049140931,57.2,0.036,2.71e-09,921000000.0,205.0,25
41.0,22.08037834168,58.08,0.036,2.71e-09,921000000.0,205.0,25
42.0,22.09026527405,58.96,0.036,2.71e-09,921000000.0,205.0,25
43.0,22.10015220642,59.84,0.036,2.71e-09,921000000.0,205.0,25
44.0,22.11003913879,60.72,0.036,2.71e-09,921000000.0,205.0,25
45.0,22.11992607116,61.6,0.036,2.71e-09,921000000.0,205.0,25
46.0,22.12981300353,62.48,0.036,2.71e-09,921000000.0,205.0,25
47.0,22.1396999359,63.36,0.036,2.71e-09,921000000.0,205.0,25
48.0,22.15229396819,64.24,0.036,2.71e-09,921000000.0,205.0,25
49.0,22.16488800048,65.12,0.036,2.71e-09,921000000.0,205.0,25
50.0,22.17748203277,66.0,0.036,2.71e-09,921000000.0,205.0,25
51.0,22.19007606506,62.94,0.036,2.71e-09,921000000.0,205.0,25
52.0,22.20267009735,62.88,0.036,2.71e-09,921000000.0,205.0,25
53.0,22.21526412964,62.82,0.036,2.71e-09,921000000.0,205.0,25
54.0,22.22785816193,62.76,0.036,2.71e-09,921000000.0,205.0,25
55.0,22.24045219422,62.7,0.036,2.71e-09,921000000.0,205.0,25
56.0,22.25304622651,62.64,0.036,2.71e-09,921000000.0,205.0,25
57.0,22.2656402588,62.58,0.036,2.71e-09,921000000.0,205.0,25
58.0,22.27925930024,62.52,0.036,2.71e-09,921000000.0,205.0,25
59.0,22.29287834168,62.46,0.036,2.71e-09,921000000.0,205.0,25
60.0,22.30649738312,62.4,0.036,2.71e-09,921000000.0,205.0,25
61.0,22.32011642456,62.34,0.036,2.71e-09,921000000.0,205.0,25
62.0,22.333735466,62.28,0.036,2.71e-09,921000000.0,205.0,25
63.0,22.34735450744,62.22,0.036,2.71e-09,921000000.0,205.0,25
64.0,22.36097354888,62.16,0.036,2.71e-09,921000000.0,205.0,25
65.0,22.37459259032,62.1,0.036,2.71e-09,921000000.0,205.0,25
66.0,22.38821163176,62.04,0.036,2.71e-09,921000000.0,205.0,25
67.0,22.4018306732,61.98,0.036,2.71e-09,921000000.0,205.0,25
68.0,22.4156190872,61.92,0.036,2.71e-09,921000000.0,205.0,25
69.0,22.4294075012,61.86,0.036,2.71e-09,921000000.0,205.0,25
70.0,22.4431959152,61.8,0.036,2.71e-09,921000000.0,205.0,25
71.0,22.4569843292,61.74,0.036,2.71e-09,921000000.0,205.0,25
72.0,22.4707727432,61.68,0.036,2.71e-09,921000000.0,205.0,25
73.0,22.4845611572,61.62,0.036,2.71e-09,921000000.0,205.0,25
74.0,22.4983495712,61.56,0.036,2.71e-09,921000000.0,205.0,25
75.0,22.5121379852,61.5,0.036,2.71e-09,921000000.0,205.0,25
76.0,22.5259263992,61.44,0.036,2.71e-09,921000000.0,205.0,25
77.0,22.5397148132,61.38,0.036,2.71e-09,921000000.0,205.0,25
78.0,22.55330810544,61.32,0.036,2.71e-09,921000000.0,205.0,25
79.0,22.56690139768,61.26,0.036,2.71e-09,921000000.0,205.0,25
80.0,22.58049468992,61.2,0.036,2.71e-09,921000000.0,205.0,25
81.0,22.59408798216,61.14,0.036,2.71e-09,921000000.0,205.0,25
82.0,22.6076812744,61.08,0.036,2.71e-09,921000000.0,205.0,25
83.0,22.62127456664,61.02,0.036,2.71e-09,921000000.0,205.0,25
84.0,22.63486785888,60.96,0.036,2.71e-09,921000000.0,205.0,25
85.0,22.64846115112,60.9,0.036,2.71e-09,921000000.0,205.0,25
86.0,22.66205444336,60.84,0.036,2.71e-09,921000000.0,205.0,25
87.0,22.6756477356,60.78,0.036,2.71e-09,921000000.0,205.0,25
88.0,22.68889961243,60.72,0.036,2.71e-09,921000000.0,205.0,25
89.0,22.70215148926,60.66,0.036,2.71e-09,921000000.0,205.0,25
90.0,22.71540336609,60.6,0.036,2.71e-09,921000000.0,205.0,25
91.0,22.72865524292,60.54,0.036,2.71e-09,921000000.0,205.0,25
92.0,22.74190711975,60.48,0.036,2.71e-09,921000000.0,205.0,25
93.0,22.75515899658,60.42,0.036,2.71e-09,921000000.0,205.0,25
94.0,22.76841087341,60.36,0.036,2.71e-09,921000000.0,205.0,25
95.0,22.78166275024,60.3,0.036,2.71e-09,921000000.0,205.0,25
96.0,22.79491462707,60.24,0.036,2.71e-09,921000000.0,205.0,25
97.0,22.8081665039,60.18,0.036,2.71e-09,921000000.0,205.0,25
98.0,22.82115859985,60.12,0.036,2.71e-09,921000000.0,205.0,25
99.0,22.8341506958,60.06,0.036,2.71e-09,921000000.0,205.0,25
100.0,22.84714279175,60.0,0.036,2.71e-09,921000000.0,205.0,25
101.0,22.8601348877,60,0.036,2.71e-09,921000000.0,205.0,25
102.0,22.87312698365,60,0.036,2.71e-09,921000000.0,205.0,25
103.0,22.8861190796,60,0.036,2.71e-09,921000000.0,205.0,25
104.0,22.89911117555,60,0.036,2.71e-09,921000000.0,205.0,25
105.0,22.9121032715,60,0.036,2.71e-09,921000000.0,205.0,25
106.0,22.92509536745,60,0.036,2.71e-09,921000000.0,205.0,25
107.0,22.9380874634,60,0.036,2.71e-09,921000000.0,205.0,25
108.0,22.95093746187,60,0.036,2.71e-09,921000000.0,205.0,25
109.0,22.96378746034,60,0.036,2.71e-09,921000000.0,205.0,25
110.0,22.97663745881,60,0.036,2.71e-09,921000000.0,205.0,25
111.0,22.98948745728,60,0.036,2.71e-09,921000000.0,205.0,25
112.0,23.00233745575,60,0.036,2.71e-09,921000000.0,205.0,25
113.0,23.01518745422,60,0.036,2.71e-09,921000000.0,205.0,25
114.0,23.02803745269,60,0.036,2.71e-09,921000000.0,205.0,25
115.0,23.04088745116,60,0.036,2.71e-09,921000000.0,205.0,25
116.0,23.05373744963,60,0.036,2.71e-09,921000000.0,205.0,25
117.0,23.0665874481,60,0.036,2.71e-09,921000000.0,205.0,25
118.0,23.07935638426,60,0.036,2.71e-09,921000000.0,205.0,25
119.0,23.09212532042,60,0.036,2.71e-09,921000000.0,205.0,25
120.0,23.10489425658,60,0.036,2.71e-09,921000000.0,205.0,25
121.0,23.11766319274,60,0.036,2.71e-09,921000000.0,205.0,25
122.0,23.1304321289,60,0.036,2.71e-09,921000000.0,205.0,25
123.0,23.14320106506,60,0.036,2.71e-09,921000000.0,205.0,25
124.0,23.15597000122,60,0.036,2.71e-09,921000000.0,205.0,25
125.0,23.16873893738,60,0.036,2.71e-09,921000000.0,205.0,25
126.0,23.18150787354,60,0.036,2.71e-09,921000000.0,205.0,25
127.0,23.1942768097,60,0.036,2.71e-09,921000000.0,205.0,25
128.0,23.20698966981,60,0.036,2.71e-09,921000000.0,205.0,25
129.0,23.21970252992,60,0.036,2.71e-09,921000000.0,205.0,25
130.0,23.23241539003,60,0.036,2.71e-09,921000000.0,205.0,25
131.0,23.24512825014,60,0.036,2.71e-09,921000000.0,205.0,25
132.0,23.25784111025,60,0.036,2.71e-09,921000000.0,205.0,25
133.0,23.27055397036,60,0.036,2.71e-09,921000000.0,205.0,25
134.0,23.28326683047,60,0.036,2.71e-09,921000000.0,205.0,25
135.0,23.29597969058,60,0.036,2.71e-09,921000000.0,205.0,25
136.0,23.30869255069,60,0.036,2.71e-09,921000000.0,205.0,25
137.0,23.3214054108,60,0.036,2.71e-09,921000000.0,205.0,25
138.0,23.33407096866,60,0.036,2.71e-09,921000000.0,205.0,25
139.0,23.34673652652,60,0.036,2.71e-09,921000000.0,205.0,25
140.0,23.35940208438,60,0.036,2.71e-09,921000000.0,205.0,25
141.0,23.37206764224,60,0.036,2.71e-09,921000000.0,205.0,25
142.0,23.3847332001,60,0.036,2.71e-09,921000000.0,205.0,25
143.0,23.39739875796,60,0.036,2.71e-09,921000000.0,205.0,25
144.0,23.41006431582,60,0.036,2.71e-09,921000000.0,205.0,25
145.0,23.42272987368,60,0.036,2.71e-09,921000000.0,205.0,25
146.0,23.43539543154,60,0.036,2.71e-09,921000000.0,205.0,25
147.0,23.4480609894,60,0.036,2.71e-09,921000000.0,205.0,25
148.0,23.46068286898,60,0.036,2.71e-09,921000000.0,205.0,25
149.0,23.47330474856,60,0.036,2.71e-09,921000000.0,205.0,25
150.0,23.48592662814,60,0.036,2.71e-09,921000000.0,205.0,25
151.0,23.49854850772,60,0.036,2.71e-09,921000000.0,205.0,25
152.0,23.5111703873,60,0.036,2.71e-09,921000000.0,205.0,25
153.0,23.52379226688,60,0.036,2.71e-09,921000000.0,205.0,25
154.0,23.53641414646,60,0.036,2.71e-09,921000000.0,205.0,25
155.0,23.54903602604,60,0.036,2.71e-09,921000000.0,205.0,25
156.0,23.56165790562,60,0.036,2.71e-09,921000000.0,205.0,25
157.0,23.5742797852,60,0.036,2.71e-09,921000000.0,205.0,25
158.0,23.5868591309,60,0.036,2.71e-09,921000000.0,205.0,25
159.0,23.5994384766,60,0.036,2.71e-09,921000000.0,205.0,25
160.0,23.6120178223,60,0.036,2.71e-09,921000000.0,205.0,25
161.0,23.624597168,60,0.036,2.71e-09,921000000.0,205.0,25
162.0,23.6371765137,60,0.036,2.71e-09,921000000.0,205.0,25
163.0,23.6497558594,60,0.036,2.71e-09,921000000.0,205.0,25
164.0,23.6623352051,60,0.036,2.71e-09,921000000.0,205.0,25
165.0,23.6749145508,60,0.036,2.71e-09,921000000.0,205.0,25
166.0,23.6874938965,60,0.036,2.71e-09,921000000.0,205.0,25
167.0,23.7000732422,60,0.036,2.71e-09,921000000.0,205.0,25
168.0,23.71261024476,60,0.036,2.71e-09,921000000.0,205.0,25
169.0,23.72514724732,60,0.036,2.71e-09,921000000.0,205.0,25
170.0,23.73768424988,60,0.036,2.71e-09,921000000.0,205.0,25
171.0,23.75022125244,60,0.036,2.71e-09,921000000.0,205.0,25
172.0,23.762758255,60,0.036,2.71e-09,921000000.0,205.0,25
173.0,23.77529525756,60,0.036,2.71e-09,921000000.0,205.0,25
174.0,23.78783226012,60,0.036,2.71e-09,921000000.0,205.0,25
175.0,23.80036926268,60,0.036,2.71e-09,921000000.0,205.0,25
176.0,23.81290626524,60,0.036,2.71e-09,921000000.0,205.0,25
177.0,23.8254432678,60,0.036,2.71e-09,921000000.0,205.0,25
178.0,23.83793792723,60,0.036,2.71e-09,921000000.0,205.0,25
179.0,23.85043258666,60,0.036,2.71e-09,921000000.0,205.0,25
180.0,23.86292724609,60,0.036,2.71e-09,921000000.0,205.0,25
181.0,23.87542190552,60,0.036,2.71e-09,921000000.0,205.0,25
182.0,23.88791656495,60,0.036,2.71e-09,921000000.0,205.0,25
183.0,23.90041122438,60,0.036,2.71e-09,921000000.0,205.0,25
184.0,23.91290588381,60,0.036,2.71e-09,921000000.0,205.0,25
185.0,23.92540054324,60,0.036,2.71e-09,921000000.0,205.0,25
186.0,23.93789520267,60,0.036,2.71e-09,921000000.0,205.0,25
187.0,23.9503898621,60,0.036,2.71e-09,921000000.0,205.0,25
188.0,23.96284217838,60,0.036,2.71e-09,921000000.0,205.0,25
189.0,23.97529449466,60,0.036,2.71e-09,921000000.0,205.0,25
190.0,23.98774681094,60,0.036,2.71e-09,921000000.0,205.0,25
191.0,24.00019912722,60,0.036,2.71e-09,921000000.0,205.0,25
192.0,24.0126514435,60,0.036,2.71e-09,921000000.0,205.0,25
193.0,24.02510375978,60,0.036,2.71e-09,921000000.0,205.0,25
194.0,24.03755607606,60,0.036,2.71e-09,921000000.0,205.0,25
195.0,24.05000839234,60,0.036,2.71e-09,921000000.0,205.0,25
196.0,24.06246070862,60,0.036,2.71e-09,921000000.0,205.0,25
197.0,24.0749130249,60,0.036,2.71e-09,921000000.0,205.0,25
198.0,24.08732318878,60,0.036,2.71e-09,921000000.0,205.0,25
199.0,24.09973335266,60,0.036,2.71e-09,921000000.0,205.0,25
200.0,24.11214351654,60,0.036,2.71e-09,921000000.0,205.0,25
201.0,24.12455368042,60,0.036,2.71e-09,921000000.0,205.0,25
202.0,24.1369638443,60,0.036,2.71e-09,921000000.0,205.0,25
203.0,24.14937400818,60,0.036,2.71e-09,921000000.0,205.0,25
204.0,24.16178417206,60,0.036,2.71e-09,921000000.0,205.0,25
205.0,24.17419433594,60,0.036,2.71e-09,921000000.0,205.0,25
206.0,24.18660449982,60,0.036,2.71e-09,921000000.0,205.0,25
207.0,24.1990146637,60,0.036,2.71e-09,921000000.0,205.0,25
208.0,24.21138248444,60,0.036,2.71e-09,921000000.0,205.0,25
209.0,24.22375030518,60,0.036,2.71e-09,921000000.0,205.0,25
210.0,24.23611812592,60,0.036,2.71e-09,921000000.0,205.0,25
211.0,24.24848594666,60,0.036,2.71e-09,921000000.0,205.0,25
212.0,24.2608537674,60,0.036,2.71e-09,921000000.0,205.0,25
213.0,24.27322158814,60,0.036,2.71e-09,921000000.0,205.0,25
214.0,24.28558940888,60,0.036,2.71e-09,921000000.0,205.0,25
215.0,24.29795722962,60,0.036,2.71e-09,921000000.0,205.0,25
216.0,24.31032505036,60,0.036,2.71e-09,921000000.0,205.0,25
217.0,24.3226928711,60,0.036,2.71e-09,921000000.0,205.0,25
218.0,24.33501853943,60,0.036,2.71e-09,921000000.0,205.0,25
219.0,24.34734420776,60,0.036,2.71e-09,921000000.0,205.0,25
220.0,24.35966987609,60,0.036,2.71e-09,921000000.0,205.0,25
221.0,24.37199554442,60,0.036,2.71e-09,921000000.0,205.0,25
222.0,24.38432121275,60,0.036,2.71e-09,921000000.0,205.0,25
223.0,24.39664688108,60,0.036,2.71e-09,921000000.0,205.0,25
224.0,24.40897254941,60,0.036,2.71e-09,921000000.0,205.0,25
225.0,24.42129821774,60,0.036,2.71e-09,921000000.0,205.0,25
226.0,24.43362388607,60,0.036,2.71e-09,921000000.0,205.0,25
227.0,24.4459495544,60,0.036,2.71e-09,921000000.0,205.0,25
228.0,24.4582328796,60,0.036,2.71e-09,921000000.0,205.0,25
229.0,24.4705162048,60,0.036,2.71e-09,921000000.0,205.0,25
230.0,24.48279953,60,0.036,2.71e-09,921000000.0,205.0,25
231.0,24.4950828552,60,0.036,2.71e-09,921000000.0,205.0,25
232.0,24.5073661804,60,0.036,2.71e-09,921000000.0,205.0,25
233.0,24.5196495056,60,0.036,2.71e-09,921000000.0,205.0,25
234.0,24.5319328308,60,0.036,2.71e-09,921000000.0,205.0,25
235.0,24.544216156,60,0.036,2.71e-09,921000000.0,205.0,25
236.0,24.5564994812,60,0.036,2.71e-09,921000000.0,205.0,25
237.0,24.5687828064,60,0.036,2.71e-09,921000000.0,205.0,25
238.0,24.58102416993,60,0.036,2.71e-09,921000000.0,205.0,25
239.0,24.59326553346,60,0.036,2.71e-09,921000000.0,205.0,25
240.0,24.60550689699,60,0.036,2.71e-09,921000000.0,205.0,25
241.0,24.61774826052,60,0.036,2.71e-09,921000000.0,205.0,25
242.0,24.62998962405,60,0.036,2.71e-09,921000000.0,205.0,25
243.0,24.64223098758,60,0.036,2.71e-09,921000000.0,205.0,25
244.0,24.65447235111,60,0.036,2.71e-09,921000000.0,205.0,25
245.0,24.66671371464,60,0.036,2.71e-09,921000000.0,205.0,25
246.0,24.67895507817,60,0.036,2.71e-09,921000000.0,205.0,25
247.0,24.6911964417,60,0.036,2.71e-09,921000000.0,205.0,25
248.0,24.70339546208,60,0.036,2.71e-09,921000000.0,205.0,25
249.0,24.71559448246,60,0.036,2.71e-09,921000000.0,205.0,25
250.0,24.72779350284,60,0.036,2.71e-09,921000000.0,205.0,25
251.0,24.73999252322,60,0.036,2.71e-09,921000000.0,205.0,25
252.0,24.7521915436,60,0.036,2.71e-09,921000000.0,205.0,25
253.0,24.76439056398,60,0.036,2.71e-09,921000000.0,205.0,25
254.0,24.77658958436,60,0.036,2.71e-09,921000000.0,205.0,25
255.0,24.78878860474,60,0.036,2.71e-09,921000000.0,205.0,25
256.0,24.80098762512,60,0.036,2.71e-09,921000000.0,205.0,25
257.0,24.8131866455,60,0.036,2.71e-09,921000000.0,205.0,25
258.0,24.82534389495,60,0.036,2.71e-09,921000000.0,205.0,25
259.0,24.8375011444,60,0.036,2.71e-09,921000000.0,205.0,25
260.0,24.84965839385,60,0.036,2.71e-09,921000000.0,205.0,25
261.0,24.8618156433,60,0.036,2.71e-09,921000000.0,205.0,25
262.0,24.87397289275,60,0.036,2.71e-09,921000000.0,205.0,25
263.0,24.8861301422,60,0.036,2.71e-09,921000000.0,205.0,25
264.0,24.89828739165,60,0.036,2.71e-09,921000000.0,205.0,25
265.0,24.9104446411,60,0.036,2.71e-09,921000000.0,205.0,25
266.0,24.92260189055,60,0.036,2.71e-09,921000000.0,205.0,25
267.0,24.93475914,60,0.036,2.71e-09,921000000.0,205.0,25
268.0,24.94687442778,60,0.036,2.71e-09,921000000.0,205.0,25
269.0,24.95898971556,60,0.036,2.71e-09,921000000.0,205.0,25
270.0,24.97110500334,60,0.036,2.71e-09,921000000.0,205.0,25
271.0,24.98322029112,60,0.036,2.71e-09,921000000.0,205.0,25
272.0,24.9953355789,60,0.036,2.71e-09,921000000.0,205.0,25
273.0,25.00745086668,60,0.036,2.71e-09,921000000.0,205.0,25
274.0,25.01956615446,60,0.036,2.71e-09,921000000.0,205.0,25
275.0,25.03168144224,60,0.036,2.71e-09,921000000.0,205.0,25
276.0,25.04379673002,60,0.036,2.71e-09,921000000.0,205.0,25
277.0,25.0559120178,60,0.036,2.71e-09,921000000.0,205.0,25
278.0,25.06798553465,60,0.036,2.71e-09,921000000.0,205.0,25
279.0,25.0800590515,60,0.036,2.71e-09,921000000.0,205.0,25
280.0,25.09213256835,60,0.036,2.71e-09,921000000.0,205.0,25
281.0,25.1042060852,60,0.036,2.71e-09,921000000.0,205.0,25
282.0,25.11627960205,60,0.036,2.71e-09,921000000.0,205.0,25
283.0,25.1283531189,60,0.036,2.71e-09,921000000.0,205.0,25
284.0,25.14042663575,60,0.036,2.71e-09,921000000.0,205.0,25
285.0,25.1525001526,60,0.036,2.71e-09,921000000.0,205.0,25
286.0,25.16457366945,60,0.036,2.71e-09,921000000.0,205.0,25
287.0,25.1766471863,60,0.036,2.71e-09,921000000.0,205.0,25
288.0,25.18867912294,60,0.036,2.71e-09,921000000.0,205.0,25
289.0,25.20071105958,60,0.036,2.71e-09,921000000.0,205.0,25
290.0,25.21274299622,60,0.036,2.71e-09,921000000.0,205.0,25
291.0,25.22477493286,60,0.036,2.71e-09,921000000.0,205.0,25
292.0,25.2368068695,60,0.036,2.71e-09,921000000.0,205.0,25
293.0,25.24883880614,60,0.036,2.71e-09,921000000.0,205.0,25
294.0,25.26087074278,60,0.036,2.71e-09,921000000.0,205.0,25
295.0,25.27290267942,60,0.036,2.71e-09,921000000.0,205.0,25
296.0,25.28493461606,60,0.036,2.71e-09,921000000.0,205.0,25
297.0,25.2969665527,60,0.036,2.71e-09,921000000.0,205.0,25
298.0,25.30895709988,60,0.036,2.71e-09,921000000.0,205.0,25
299.0,25.32094764706,60,0.036,2.71e-09,921000000.0,205.0,25
300.0,25.33293819424,60,0.036,2.71e-09,921000000.0,205.0,25
301.0,25.34492874142,60,0.036,2.71e-09,921000000.0,205.0,25
302.0,25.3569192886,60,0.036,2.71e-09,921000000.0,205.0,25
303.0,25.36890983578,60,0.036,2.71e-09,921000000.0,205.0,25
304.0,25.38090038296,60,0.036,2.71e-09,921000000.0,205.0,25
305.0,25.39289093014,60,0.036,2.71e-09,921000000.0,205.0,25
306.0,25.40488147732,60,0.036,2.71e-09,921000000.0,205.0,25
307.0,25.4168720245,60,0.036,2.71e-09,921000000.0,205.0,25
308.0,25.42882099148,60,0.036,2.71e-09,921000000.0,205.0,25
309.0,25.44076995846,60,0.036,2.71e-09,921000000.0,205.0,25
310.0,25.45271892544,60,0.036,2.71e-09,921000000.0,205.0,25
311.0,25.46466789242,60,0.036,2.71e-09,921000000.0,205.0,25
312.0,25.4766168594,60,0.036,2.71e-09,921000000.0,205.0,25
313.0,25.48856582638,60,0.036,2.71e-09,921000000.0,205.0,25
314.0,25.50051479336,60,0.036,2.71e-09,921000000.0,205.0,25
315.0,25.51246376034,60,0.036,2.71e-09,921000000.0,205.0,25
316.0,25.52441272732,60,0.036,2.71e-09,921000000.0,205.0,25
317.0,25.5363616943,60,0.036,2.71e-09,921000000.0,205.0,25
318.0,25.54826946255,60,0.036,2.71e-09,921000000.0,205.0,25
319.0,25.5601772308,60,0.036,2.71e-09,921000000.0,205.0,25
320.0,25.57208499905,60,0.036,2.71e-09,921000000.0,205.0,25
321.0,25.5839927673,60,0.036,2.71e-09,921000000.0,205.0,25
322.0,25.59590053555,60,0.036,2.71e-09,921000000.0,205.0,25
323.0,25.6078083038,60,0.036,2.71e-09,921000000.0,205.0,25
324.0,25.61971607205,60,0.036,2.71e-09,921000000.0,205.0,25
325.0,25.6316238403,60,0.036,2.71e-09,921000000.0,205.0,25
326.0,25.64353160855,60,0.036,2.71e-09,921000000.0,205.0,25
327.0,25.6554393768,60,0.036,2.71e-09,921000000.0,205.0,25
328.0,25.66730613706,60,0.036,2.71e-09,921000000.0,205.0,25
329.0,25.67917289732,60,0.036,2.71e-09,921000000.0,205.0,25
330.0,25.69103965758,60,0.036,2.71e-09,921000000.0,205.0,25
