time,T_int,T_ext_1,Film_Coef,Density,Specific_Heat,Thermal_Conductivity,Radius
1.0,21.9996681213,22.88,0.036,2.61e-09,1071000000.0,205.0,25
2.0,21.9991798401,23.76,0.036,2.61e-09,1071000000.0,205.0,25
3.0,21.9985122681,24.64,0.036,2.61e-09,1071000000.0,205.0,25
4.0,21.9973125458,25.52,0.036,2.61e-09,1071000000.0,205.0,25
5.0,21.9961128235,26.4,0.036,2.61e-09,1071000000.0,205.0,25
6.0,21.99418354035,27.28,0.036,2.61e-09,1071000000.0,205.0,25
7.0,21.9922542572,28.16,0.036,2.61e-09,1071000000.0,205.0,25
8.0,21.99032497405,29.04,0.036,2.61e-09,1071000000.0,205.0,25
9.0,21.9883956909,29.92,0.036,2.61e-09,1071000000.0,205.0,25
10.0,21.987008810025,30.8,0.036,2.61e-09,1071000000.0,205.0,25
11.0,21.98562192915,31.68,0.036,2.61e-09,1071000000.0,205.0,25
12.0,21.984235048275,32.56,0.036,2.61e-09,1071000000.0,205.0,25
13.0,21.9828481674,33.44,0.036,2.61e-09,1071000000.0,205.0,25
14.0,21.981461286525,34.32,0.036,2.61e-09,1071000000.0,205.0,25
15.0,21.98007440565,35.2,0.036,2.61e-09,1071000000.0,205.0,25
16.0,21.978687524775,36.08,0.036,2.61e-09,1071000000.0,205.0,25
17.0,21.9773006439,36.96,0.036,2.61e-09,1071000000.0,205.0,25
18.0,21.97827606199,37.84,0.036,2.61e-09,1071000000.0,205.0,25
19.0,21.97925148008,38.72,0.036,2.61e-09,1071000000.0,205.0,25
20.0,21.98022689817,39.6,0.036,2.61e-09,1071000000.0,205.0,25
21.0,21.98120231626,40.48,0.036,2.61e-09,1071000000.0,205.0,25
22.0,21.98217773435,41.36,0.036,2.61e-09,1071000000.0,205.0,25
23.0,21.98315315244,42.24,0.036,2.61e-09,1071000000.0,205.0,25
24.0,21.98412857053,43.12,0.036,2.61e-09,1071000000.0,205.0,25
25.0,21.98510398862,44.0,0.036,2.61e-09,1071000000.0,205.0,25
26.0,21.98607940671,44.88,0.036,2.61e-09,1071000000.0,205.0,25
27.0,21.9870548248,45.76,0.036,2.61e-09,1071000000.0,205.0,25
28.0,21.99114208219,46.64,0.036,2.61e-09,1071000000.0,205.0,25
29.0,21.99522933958,47.52,0.036,2.61e-09,1071000000.0,205.0,25
30.0,21.99931659697,48.4,0.036,2.61e-09,1071000000.0,205.0,25
31.0,22.00340385436,49.28,0.036,2.61e-09,1071000000.0,205.0,25
32.0,22.00749111175,50.16,0.036,2.61e-09,1071000000.0,205.0,25
33.0,22.01157836914,51.04,0.036,2.61e-09,1071000000.0,205.0,25
34.0,22.01566562653,51.92,0.036,2.61e-09,1071000000.0,205.0,25
35.0,22.01975288392,52.8,0.036,2.61e-09,1071000000.0,205.0,25
36.0,22.02384014131,53.68,0.036,2.61e-09,1071000000.0,205.0,25
37.0,22.0279273987,54.56,0.036,2.61e-09,1071000000.0,205.0,25
38.0,22.03544616701,55.44,0.036,2.61e-09,1071000000.0,205.0,25
39.0,22.04296493532,56.32,0.036,2.61e-09,1071000000.0,205.0,25
40.0,22.05048370363,57.2,0.036,2.61e-09,1071000000.0,205.0,25
41.0,22.05800247194,58.08,0.036,2.61e-09,1071000000.0,205.0,25
42.0,22.06552124025,58.96,0.036,2.61e-09,1071000000.0,205.0,25
43.0,22.07304000856,59.84,0.036,2.61e-09,1071000000.0,205.0,25
44.0,22.08055877687,60.72,0.036,2.61e-09,1071000000.0,205.0,25
45.0,22.08807754518,61.6,0.036,2.61e-09,1071000000.0,205.0,25
46.0,22.09559631349,62.48,0.036,2.61e-09,1071000000.0,205.0,25
47.0,22.1031150818,63.36,0.036,2.61e-09,1071000000.0,205.0,25
48.0,22.11296882631,64.24,0.036,2.61e-09,1071000000.0,205.0,25
49.0,22.12282257082,65.12,0.036,2.61e-09,1071000000.0,205.0,25
50.0,22.13267631533,66.0,0.036,2.61e-09,1071000000.0,205.0,25
51.0,22.14253005984,62.94,0.036,2.61e-09,1071000000.0,205.0,25
52.0,22.15238380435,62.88,0.036,2.61e-09,1071000000.0,205.0,25
53.0,22.16223754886,62.82,0.036,2.61e-09,1071000000.0,205.0,25
54.0,22.17209129337,62.76,0.036,2.61e-09,1071000000.0,205.0,25
55.0,22.18194503788,62.7,0.036,2.61e-09,1071000000.0,205.0,25
56.0,22.19179878239,62.64,0.036,2.61e-09,1071000000.0,205.0,25
57.0,22.2016525269,62.58,0.036,2.61e-09,1071000000.0,205.0,25
58.0,22.21254997257,62.52,0.036,2.61e-09,1071000000.0,205.0,25
59.0,22.22344741824,62.46,0.036,2.61e-09,1071000000.0,205.0,25
60.0,22.23434486391,62.4,0.036,2.61e-09,1071000000.0,205.0,25
61.0,22.24524230958,62.34,0.036,2.61e-09,1071000000.0,205.0,25
62.0,22.25613975525,62.28,0.036,2.61e-09,1071000000.0,205.0,25
63.0,22.26703720092,62.22,0.036,2.61e-09,1071000000.0,205.0,25
64.0,22.27793464659,62.16,0.036,2.61e-09,1071000000.0,205.0,25
65.0,22.28883209226,62.1,0.036,2.61e-09,1071000000.0,205.0,25
66.0,22.29972953793,62.04,0.036,2.61e-09,1071000000.0,205.0,25
67.0,22.3106269836,61.98,0.036,2.61e-09,1071000000.0,205.0,25
68.0,22.32182140347,61.92,0.036,2.61e-09,1071000000.0,205.0,25
69.0,22.33301582334,61.86,0.036,2.61e-09,1071000000.0,205.0,25
70.0,22.34421024321,61.8,0.036,2.61e-09,1071000000.0,205.0,25
71.0,22.35540466308,61.74,0.036,2.61e-09,1071000000.0,205.0,25
72.0,22.36659908295,61.68,0.036,2.61e-09,1071000000.0,205.0,25
73.0,22.37779350282,61.62,0.036,2.61e-09,1071000000.0,205.0,25
74.0,22.38898792269,61.56,0.036,2.61e-09,1071000000.0,205.0,25
75.0,22.40018234256,61.5,0.036,2.61e-09,1071000000.0,205.0,25
76.0,22.41137676243,61.44,0.036,2.61e-09,1071000000.0,205.0,25
77.0,22.4225711823,61.38,0.036,2.61e-09,1071000000.0,205.0,25
78.0,22.43370323186,61.32,0.036,2.61e-09,1071000000.0,205.0,25
79.0,22.44483528142,61.26,0.036,2.61e-09,1071000000.0,205.0,25
80.0,22.45596733098,61.2,0.036,2.61e-09,1071000000.0,205.0,25
81.0,22.46709938054,61.14,0.036,2.61e-09,1071000000.0,205.0,25
82.0,22.4782314301,61.08,0.036,2.61e-09,1071000000.0,205.0,25
83.0,22.48936347966,61.02,0.036,2.61e-09,1071000000.0,205.0,25
84.0,22.50049552922,60.96,0.036,2.61e-09,1071000000.0,205.0,25
85.0,22.51162757878,60.9,0.036,2.61e-09,1071000000.0,205.0,25
86.0,22.52275962834,60.84,0.036,2.61e-09,1071000000.0,205.0,25
87.0,22.5338916779,60.78,0.036,2.61e-09,1071000000.0,205.0,25
88.0,22.54480037693,60.72,0.036,2.61e-09,1071000000.0,205.0,25
89.0,22.55570907596,60.66,0.036,2.61e-09,1071000000.0,205.0,25
90.0,22.56661777499,60.6,0.036,2.61e-09,1071000000.0,205.0,25
91.0,22.57752647402,60.54,0.036,2.61e-09,1071000000.0,205.0,25
92.0,22.58843517305,60.48,0.036,2.61e-09,1071000000.0,205.0,25
93.0,22.59934387208,60.42,0.036,2.61e-09,1071000000.0,205.0,25
94.0,22.61025257111,60.36,0.036,2.61e-09,1071000000.0,205.0,25
95.0,22.62116127014,60.3,0.036,2.61e-09,1071000000.0,205.0,25
96.0,22.63206996917,60.24,0.036,2.61e-09,1071000000.0,205.0,25
97.0,22.6429786682,60.18,0.036,2.61e-09,1071000000.0,205.0,25
98.0,22.65369491576,60.12,0.036,2.61e-09,1071000000.0,205.0,25
99.0,22.66441116332,60.06,0.036,2.61e-09,1071000000.0,205.0,25
100.0,22.67512741088,60.0,0.036,2.61e-09,1071000000.0,205.0,25
101.0,22.68584365844,60,0.036,2.61e-09,1071000000.0,205.0,25
102.0,22.696559906,60,0.036,2.61e-09,1071000000.0,205.0,25
103.0,22.70727615356,60,0.036,2.61e-09,1071000000.0,205.0,25
104.0,22.71799240112,60,0.036,2.61e-09,1071000000.0,205.0,25
105.0,22.72870864868,60,0.036,2.61e-09,1071000000.0,205.0,25
106.0,22.73942489624,60,0.036,2.61e-09,1071000000.0,205.0,25
107.0,22.7501411438,60,0.036,2.61e-09,1071000000.0,205.0,25
108.0,22.76074428558,60,0.036,2.61e-09,1071000000.0,205.0,25
109.0,22.77134742736,60,0.036,2.61e-09,1071000000.0,205.0,25
110.0,22.78195056914,60,0.036,2.61e-09,1071000000.0,205.0,25
111.0,22.79255371092,60,0.036,2.61e-09,1071000000.0,205.0,25
112.0,22.8031568527,60,0.036,2.61e-09,1071000000.0,205.0,25
113.0,22.81375999448,60,0.036,2.61e-09,1071000000.0,205.0,25
114.0,22.82436313626,60,0.036,2.61e-09,1071000000.0,205.0,25
115.0,22.83496627804,60,0.036,2.61e-09,1071000000.0,205.0,25
116.0,22.84556941982,60,0.036,2.61e-09,1071000000.0,205.0,25
117.0,22.8561725616,60,0.036,2.61e-09,1071000000.0,205.0,25
118.0,22.86671047207,60,0.036,2.61e-09,1071000000.0,205.0,25
119.0,22.87724838254,60,0.036,2.61e-09,1071000000.0,205.0,25
120.0,22.88778629301,60,0.036,2.61e-09,1071000000.0,205.0,25
121.0,22.89832420348,60,0.036,2.61e-09,1071000000.0,205.0,25
122.0,22.90886211395,60,0.036,2.61e-09,1071000000.0,205.0,25
123.0,22.91940002442,60,0.036,2.61e-09,1071000000.0,205.0,25
124.0,22.92993793489,60,0.036,2.61e-09,1071000000.0,205.0,25
125.0,22.94047584536,60,0.036,2.61e-09,1071000000.0,205.0,25
126.0,22.95101375583,60,0.036,2.61e-09,1071000000.0,205.0,25
127.0,22.9615516663,60,0.036,2.61e-09,1071000000.0,205.0,25
128.0,22.97204723362,60,0.036,2.61e-09,1071000000.0,205.0,25
129.0,22.98254280094,60,0.036,2.61e-09,1071000000.0,205.0,25
130.0,22.99303836826,60,0.036,2.61e-09,1071000000.0,205.0,25
131.0,23.00353393558,60,0.036,2.61e-09,1071000000.0,205.0,25
132.0,23.0140295029,60,0.036,2.61e-09,1071000000.0,205.0,25
133.0,23.02452507022,60,0.036,2.61e-09,1071000000.0,205.0,25
134.0,23.03502063754,60,0.036,2.61e-09,1071000000.0,205.0,25
135.0,23.04551620486,60,0.036,2.61e-09,1071000000.0,205.0,25
136.0,23.05601177218,60,0.036,2.61e-09,1071000000.0,205.0,25
137.0,23.0665073395,60,0.036,2.61e-09,1071000000.0,205.0,25
138.0,23.07696952822,60,0.036,2.61e-09,1071000000.0,205.0,25
139.0,23.08743171694,60,0.036,2.61e-09,1071000000.0,205.0,25
140.0,23.09789390566,60,0.036,2.61e-09,1071000000.0,205.0,25
141.0,23.10835609438,60,0.036,2.61e-09,1071000000.0,205.0,25
142.0,23.1188182831,60,0.036,2.61e-09,1071000000.0,205.0,25
143.0,23.12928047182,60,0.036,2.61e-09,1071000000.0,205.0,25
144.0,23.13974266054,60,0.036,2.61e-09,1071000000.0,205.0,25
145.0,23.15020484926,60,0.036,2.61e-09,1071000000.0,205.0,25
146.0,23.16066703798,60,0.036,2.61e-09,1071000000.0,205.0,25
147.0,23.1711292267,60,0.036,2.61e-09,1071000000.0,205.0,25
148.0,23.18156185152,60,0.036,2.61e-09,1071000000.0,205.0,25
149.0,23.19199447634,60,0.036,2.61e-09,1071000000.0,205.0,25
150.0,23.20242710116,60,0.036,2.61e-09,1071000000.0,205.0,25
151.0,23.21285972598,60,0.036,2.61e-09,1071000000.0,205.0,25
152.0,23.2232923508,60,0.036,2.61e-09,1071000000.0,205.0,25
153.0,23.23372497562,60,0.036,2.61e-09,1071000000.0,205.0,25
154.0,23.24415760044,60,0.036,2.61e-09,1071000000.0,205.0,25
155.0,23.25459022526,60,0.036,2.61e-09,1071000000.0,205.0,25
156.0,23.26502285008,60,0.036,2.61e-09,1071000000.0,205.0,25
157.0,23.2754554749,60,0.036,2.61e-09,1071000000.0,205.0,25
158.0,23.28585987095,60,0.036,2.61e-09,1071000000.0,205.0,25
159.0,23.296264267,60,0.036,2.61e-09,1071000000.0,205.0,25
160.0,23.30666866305,60,0.036,2.61e-09,1071000000.0,205.0,25
161.0,23.3170730591,60,0.036,2.61e-09,1071000000.0,205.0,25
162.0,23.32747745515,60,0.036,2.61e-09,1071000000.0,205.0,25
163.0,23.3378818512,60,0.036,2.61e-09,1071000000.0,205.0,25
164.0,23.34828624725,60,0.036,2.61e-09,1071000000.0,205.0,25
165.0,23.3586906433,60,0.036,2.61e-09,1071000000.0,205.0,25
166.0,23.36909503935,60,0.036,2.61e-09,1071000000.0,205.0,25
167.0,23.3794994354,60,0.036,2.61e-09,1071000000.0,205.0,25
168.0,23.3898756027,60,0.036,2.61e-09,1071000000.0,205.0,25
169.0,23.40025177,60,0.036,2.61e-09,1071000000.0,205.0,25
170.0,23.4106279373,60,0.036,2.61e-09,1071000000.0,205.0,25
171.0,23.4210041046,60,0.036,2.61e-09,1071000000.0,205.0,25
172.0,23.4313802719,60,0.036,2.61e-09,1071000000.0,205.0,25
173.0,23.4417564392,60,0.036,2.61e-09,1071000000.0,205.0,25
174.0,23.4521326065,60,0.036,2.61e-09,1071000000.0,205.0,25
175.0,23.4625087738,60,0.036,2.61e-09,1071000000.0,205.0,25
176.0,23.4728849411,60,0.036,2.61e-09,1071000000.0,205.0,25
177.0,23.4832611084,60,0.036,2.61e-09,1071000000.0,205.0,25
178.0,23.49360923767,60,0.036,2.61e-09,1071000000.0,205.0,25
179.0,23.50395736694,60,0.036,2.61e-09,1071000000.0,205.0,25
180.0,23.51430549621,60,0.036,2.61e-09,1071000000.0,205.0,25
181.0,23.52465362548,60,0.036,2.61e-09,1071000000.0,205.0,25
182.0,23.53500175475,60,0.036,2.61e-09,1071000000.0,205.0,25
183.0,23.54534988402,60,0.036,2.61e-09,1071000000.0,205.0,25
184.0,23.55569801329,60,0.036,2.61e-09,1071000000.0,205.0,25
185.0,23.56604614256,60,0.036,2.61e-09,1071000000.0,205.0,25
186.0,23.57639427183,60,0.036,2.61e-09,1071000000.0,205.0,25
187.0,23.5867424011,60,0.036,2.61e-09,1071000000.0,205.0,25
188.0,23.59706268308,60,0.036,2.61e-09,1071000000.0,205.0,25
189.0,23.60738296506,60,0.036,2.61e-09,1071000000.0,205.0,25
190.0,23.61770324704,60,0.036,2.61e-09,1071000000.0,205.0,25
191.0,23.62802352902,60,0.036,2.61e-09,1071000000.0,205.0,25
192.0,23.638343811,60,0.036,2.61e-09,1071000000.0,205.0,25
193.0,23.64866409298,60,0.036,2.61e-09,1071000000.0,205.0,25
194.0,23.65898437496,60,0.036,2.61e-09,1071000000.0,205.0,25
195.0,23.66930465694,60,0.036,2.61e-09,1071000000.0,205.0,25
196.0,23.67962493892,60,0.036,2.61e-09,1071000000.0,205.0,25
197.0,23.6899452209,60,0.036,2.61e-09,1071000000.0,205.0,25
198.0,23.70023708339,60,0.036,2.61e-09,1071000000.0,205.0,25
199.0,23.71052894588,60,0.036,2.61e-09,1071000000.0,205.0,25
200.0,23.72082080837,60,0.036,2.61e-09,1071000000.0,205.0,25
201.0,23.73111267086,60,0.036,2.61e-09,1071000000.0,205.0,25
202.0,23.74140453335,60,0.036,2.61e-09,1071000000.0,205.0,25
203.0,23.75169639584,60,0.036,2.61e-09,1071000000.0,205.0,25
204.0,23.76198825833,60,0.036,2.61e-09,1071000000.0,205.0,25
205.0,23.77228012082,60,0.036,2.61e-09,1071000000.0,205.0,25
206.0,23.78257198331,60,0.036,2.61e-09,1071000000.0,205.0,25
207.0,23.7928638458,60,0.036,2.61e-09,1071000000.0,205.0,25
208.0,23.80312767027,60,0.036,2.61e-09,1071000000.0,205.0,25
209.0,23.81339149474,60,0.036,2.61e-09,1071000000.0,205.0,25
210.0,23.82365531921,60,0.036,2.61e-09,1071000000.0,205.0,25
211.0,23.83391914368,60,0.036,2.61e-09,1071000000.0,205.0,25
212.0,23.84418296815,60,0.036,2.61e-09,1071000000.0,205.0,25
213.0,23.85444679262,60,0.036,2.61e-09,1071000000.0,205.0,25
214.0,23.86471061709,60,0.036,2.61e-09,1071000000.0,205.0,25
215.0,23.87497444156,60,0.036,2.61e-09,1071000000.0,205.0,25
216.0,23.88523826603,60,0.036,2.61e-09,1071000000.0,205.0,25
217.0,23.8955020905,60,0.036,2.61e-09,1071000000.0,205.0,25
218.0,23.90573749546,60,0.036,2.61e-09,1071000000.0,205.0,25
219.0,23.91597290042,60,0.036,2.61e-09,1071000000.0,205.0,25
220.0,23.92620830538,60,0.036,2.61e-09,1071000000.0,205.0,25
221.0,23.93644371034,60,0.036,2.61e-09,1071000000.0,205.0,25
222.0,23.9466791153,60,0.036,2.61e-09,1071000000.0,205.0,25
223.0,23.95691452026,60,0.036,2.61e-09,1071000000.0,205.0,25
224.0,23.96714992522,60,0.036,2.61e-09,1071000000.0,205.0,25
225.0,23.97738533018,60,0.036,2.61e-09,1071000000.0,205.0,25
226.0,23.98762073514,60,0.036,2.61e-09,1071000000.0,205.0,25
227.0,23.9978561401,60,0.036,2.61e-09,1071000000.0,205.0,25
228.0,24.00806312558,60,0.036,2.61e-09,1071000000.0,205.0,25
229.0,24.01827011106,60,0.036,2.61e-09,1071000000.0,205.0,25
230.0,24.02847709654,60,0.036,2.61e-09,1071000000.0,205.0,25
231.0,24.03868408202,60,0.036,2.61e-09,1071000000.0,205.0,25
232.0,24.0488910675,60,0.036,2.61e-09,1071000000.0,205.0,25
233.0,24.05909805298,60,0.036,2.61e-09,1071000000.0,205.0,25
234.0,24.06930503846,60,0.036,2.61e-09,1071000000.0,205.0,25
235.0,24.07951202394,60,0.036,2.61e-09,1071000000.0,205.0,25
236.0,24.08971900942,60,0.036,2.61e-09,1071000000.0,205.0,25
237.0,24.0999259949,60,0.036,2.61e-09,1071000000.0,205.0,25
238.0,24.11010456088,60,0.036,2.61e-09,1071000000.0,205.0,25
239.0,24.12028312686,60,0.036,2.61e-09,1071000000.0,205.0,25
240.0,24.13046169284,60,0.036,2.61e-09,1071000000.0,205.0,25
241.0,24.14064025882,60,0.036,2.61e-09,1071000000.0,205.0,25
242.0,24.1508188248,60,0.036,2.61e-09,1071000000.0,205.0,25
243.0,24.16099739078,60,0.036,2.61e-09,1071000000.0,205.0,25
244.0,24.17117595676,60,0.036,2.61e-09,1071000000.0,205.0,25
245.0,24.18135452274,60,0.036,2.61e-09,1071000000.0,205.0,25
246.0,24.19153308872,60,0.036,2.61e-09,1071000000.0,205.0,25
247.0,24.2017116547,60,0.036,2.61e-09,1071000000.0,205.0,25
248.0,24.21186161045,60,0.036,2.61e-09,1071000000.0,205.0,25
249.0,24.2220115662,60,0.036,2.61e-09,1071000000.0,205.0,25
250.0,24.23216152195,60,0.036,2.61e-09,1071000000.0,205.0,25
251.0,24.2423114777,60,0.036,2.61e-09,1071000000.0,205.0,25
252.0,24.25246143345,60,0.036,2.61e-09,1071000000.0,205.0,25
253.0,24.2626113892,60,0.036,2.61e-09,1071000000.0,205.0,25
254.0,24.27276134495,60,0.036,2.61e-09,1071000000.0,205.0,25
255.0,24.2829113007,60,0.036,2.61e-09,1071000000.0,205.0,25
256.0,24.29306125645,60,0.036,2.61e-09,1071000000.0,205.0,25
257.0,24.3032112122,60,0.036,2.61e-09,1071000000.0,205.0,25
258.0,24.31333293919,60,0.036,2.61e-09,1071000000.0,205.0,25
259.0,24.32345466618,60,0.036,2.61e-09,1071000000.0,205.0,25
260.0,24.33357639317,60,0.036,2.61e-09,1071000000.0,205.0,25
261.0,24.34369812016,60,0.036,2.61e-09,1071000000.0,205.0,25
262.0,24.35381984715,60,0.036,2.61e-09,1071000000.0,205.0,25
263.0,24.36394157414,60,0.036,2.61e-09,1071000000.0,205.0,25
264.0,24.37406330113,60,0.036,2.61e-09,1071000000.0,205.0,25
265.0,24.38418502812,60,0.036,2.61e-09,1071000000.0,205.0,25
266.0,24.39430675511,60,0.036,2.61e-09,1071000000.0,205.0,25
267.0,24.4044284821,60,0.036,2.61e-09,1071000000.0,205.0,25
268.0,24.41452178959,60,0.036,2.61e-09,1071000000.0,205.0,25
269.0,24.42461509708,60,0.036,2.61e-09,1071000000.0,205.0,25
270.0,24.43470840457,60,0.036,2.61e-09,1071000000.0,205.0,25
271.0,24.44480171206,60,0.036,2.61e-09,1071000000.0,205.0,25
272.0,24.45489501955,60,0.036,2.61e-09,1071000000.0,205.0,25
273.0,24.46498832704,60,0.036,2.61e-09,1071000000.0,205.0,25
274.0,24.47508163453,60,0.036,2.61e-09,1071000000.0,205.0,25
275.0,24.48517494202,60,0.036,2.61e-09,1071000000.0,205.0,25
276.0,24.49526824951,60,0.036,2.61e-09,1071000000.0,205.0,25
277.0,24.505361557,60,0.036,2.61e-09,1071000000.0,205.0,25
278.0,24.51542625427,60,0.036,2.61e-09,1071000000.0,205.0,25
279.0,24.52549095154,60,0.036,2.61e-09,1071000000.0,205.0,25
280.0,24.53555564881,60,0.036,2.61e-09,1071000000.0,205.0,25
281.0,24.54562034608,60,0.036,2.61e-09,1071000000.0,205.0,25
282.0,24.55568504335,60,0.036,2.61e-09,1071000000.0,205.0,25
283.0,24.56574974062,60,0.036,2.61e-09,1071000000.0,205.0,25
284.0,24.57581443789,60,0.036,2.61e-09,1071000000.0,205.0,25
285.0,24.58587913516,60,0.036,2.61e-09,1071000000.0,205.0,25
286.0,24.59594383243,60,0.036,2.61e-09,1071000000.0,205.0,25
287.0,24.6060085297,60,0.036,2.61e-09,1071000000.0,205.0,25
288.0,24.6160449982,60,0.036,2.61e-09,1071000000.0,205.0,25
289.0,24.6260814667,60,0.036,2.61e-09,1071000000.0,205.0,25
290.0,24.6361179352,60,0.036,2.61e-09,1071000000.0,205.0,25
291.0,24.6461544037,60,0.036,2.61e-09,1071000000.0,205.0,25
292.0,24.6561908722,60,0.036,2.61e-09,1071000000.0,205.0,25
293.0,24.6662273407,60,0.036,2.61e-09,1071000000.0,205.0,25
294.0,24.6762638092,60,0.036,2.61e-09,1071000000.0,205.0,25
295.0,24.6863002777,60,0.036,2.61e-09,1071000000.0,205.0,25
296.0,24.6963367462,60,0.036,2.61e-09,1071000000.0,205.0,25
297.0,24.7063732147,60,0.036,2.61e-09,1071000000.0,205.0,25
298.0,24.71638145445,60,0.036,2.61e-09,1071000000.0,205.0,25
299.0,24.7263896942,60,0.036,2.61e-09,1071000000.0,205.0,25
300.0,24.73639793395,60,0.036,2.61e-09,1071000000.0,205.0,25
301.0,24.7464061737,60,0.036,2.61e-09,1071000000.0,205.0,25
302.0,24.75641441345,60,0.036,2.61e-09,1071000000.0,205.0,25
303.0,24.7664226532,60,0.036,2.61e-09,1071000000.0,205.0,25
304.0,24.77643089295,60,0.036,2.61e-09,1071000000.0,205.0,25
305.0,24.7864391327,60,0.036,2.61e-09,1071000000.0,205.0,25
306.0,24.79644737245,60,0.036,2.61e-09,1071000000.0,205.0,25
307.0,24.8064556122,60,0.036,2.61e-09,1071000000.0,205.0,25
308.0,24.81643543245,60,0.036,2.61e-09,1071000000.0,205.0,25
309.0,24.8264152527,60,0.036,2.61e-09,1071000000.0,205.0,25
310.0,24.83639507295,60,0.036,2.61e-09,1071000000.0,205.0,25
311.0,24.8463748932,60,0.036,2.61e-09,1071000000.0,205.0,25
312.0,24.85635471345,60,0.036,2.61e-09,1071000000.0,205.0,25
313.0,24.8663345337,60,0.036,2.61e-09,1071000000.0,205.0,25
314.0,24.87631435395,60,0.036,2.61e-09,1071000000.0,205.0,25
315.0,24.8862941742,60,0.036,2.61e-09,1071000000.0,205.0,25
316.0,24.89627399445,60,0.036,2.61e-09,1071000000.0,205.0,25
317.0,24.9062538147,60,0.036,2.61e-09,1071000000.0,205.0,25
318.0,24.91620540619,60,0.036,2.61e-09,1071000000.0,205.0,25
319.0,24.92615699768,60,0.036,2.61e-09,1071000000.0,205.0,25
320.0,24.93610858917,60,0.036,2.61e-09,1071000000.0,205.0,25
321.0,24.94606018066,60,0.036,2.61e-09,1071000000.0,205.0,25
322.0,24.95601177215,60,0.036,2.61e-09,1071000000.0,205.0,25
323.0,24.96596336364,60,0.036,2.61e-09,1071000000.0,205.0,25
324.0,24.97591495513,60,0.036,2.61e-09,1071000000.0,205.0,25
325.0,24.98586654662,60,0.036,2.61e-09,1071000000.0,205.0,25
