time,T_int,T_ext_1,Film_Coef,Density,Specific_Heat,Thermal_Conductivity,Radius
1.0,21.9807548523,22.88,0.036,7.97e-09,336000000.0,152.0,15
2.0,21.9656562805,23.76,0.036,7.97e-09,336000000.0,152.0,15
3.0,21.9529361725,24.64,0.036,7.97e-09,336000000.0,152.0,15
4.0,21.94300079345,25.52,0.036,7.97e-09,336000000.0,152.0,15
5.0,21.9330654144,26.4,0.036,7.97e-09,336000000.0,152.0,15
6.0,21.9271211624,27.28,0.036,7.97e-09,336000000.0,152.0,15
7.0,21.9211769104,28.16,0.036,7.97e-09,336000000.0,152.0,15
8.0,21.9152326584,29.04,0.036,7.97e-09,336000000.0,152.0,15
9.0,21.9092884064,29.92,0.036,7.97e-09,336000000.0,152.0,15
10.0,21.9103755951125,30.8,0.036,7.97e-09,336000000.0,152.0,15
11.0,21.911462783825,31.68,0.036,7.97e-09,336000000.0,152.0,15
12.0,21.9125499725375,32.56,0.036,7.97e-09,336000000.0,152.0,15
13.0,21.91363716125,33.44,0.036,7.97e-09,336000000.0,152.0,15
14.0,21.9147243499625,34.32,0.036,7.97e-09,336000000.0,152.0,15
15.0,21.915811538675,35.2,0.036,7.97e-09,336000000.0,152.0,15
16.0,21.9168987273875,36.08,0.036,7.97e-09,336000000.0,152.0,15
17.0,21.9179859161,36.96,0.036,7.97e-09,336000000.0,152.0,15
18.0,21.927639389,37.84,0.036,7.97e-09,336000000.0,152.0,15
19.0,21.9372928619,38.72,0.036,7.97e-09,336000000.0,152.0,15
20.0,21.9469463348,39.6,0.036,7.97e-09,336000000.0,152.0,15
21.0,21.9565998077,40.48,0.036,7.97e-09,336000000.0,152.0,15
22.0,21.9662532806,41.36,0.036,7.97e-09,336000000.0,152.0,15
23.0,21.9759067535,42.24,0.036,7.97e-09,336000000.0,152.0,15
24.0,21.9855602264,43.12,0.036,7.97e-09,336000000.0,152.0,15
25.0,21.9952136993,44.0,0.036,7.97e-09,336000000.0,152.0,15
26.0,22.0048671722,44.88,0.036,7.97e-09,336000000.0,152.0,15
27.0,22.0145206451,45.76,0.036,7.97e-09,336000000.0,152.0,15
28.0,22.03269195553,46.64,0.036,7.97e-09,336000000.0,152.0,15
29.0,22.05086326596,47.52,0.036,7.97e-09,336000000.0,152.0,15
30.0,22.06903457639,48.4,0.036,7.97e-09,336000000.0,152.0,15
31.0,22.08720588682,49.28,0.036,7.97e-09,336000000.0,152.0,15
32.0,22.10537719725,50.16,0.036,7.97e-09,336000000.0,152.0,15
33.0,22.12354850768,51.04,0.036,7.97e-09,336000000.0,152.0,15
34.0,22.14171981811,51.92,0.036,7.97e-09,336000000.0,152.0,15
35.0,22.15989112854,52.8,0.036,7.97e-09,336000000.0,152.0,15
36.0,22.17806243897,53.68,0.036,7.97e-09,336000000.0,152.0,15
37.0,22.1962337494,54.56,0.036,7.97e-09,336000000.0,152.0,15
38.0,22.22288780213,55.44,0.036,7.97e-09,336000000.0,152.0,15
39.0,22.24954185486,56.32,0.036,7.97e-09,336000000.0,152.0,15
40.0,22.27619590759,57.2,0.036,7.97e-09,336000000.0,152.0,15
41.0,22.30284996032,58.08,0.036,7.97e-09,336000000.0,152.0,15
42.0,22.32950401305,58.96,0.036,7.97e-09,336000000.0,152.0,15
43.0,22.35615806578,59.84,0.036,7.97e-09,336000000.0,152.0,15
44.0,22.38281211851,60.72,0.036,7.97e-09,336000000.0,152.0,15
45.0,22.40946617124,61.6,0.036,7.97e-09,336000000.0,152.0,15
46.0,22.43612022397,62.48,0.036,7.97e-09,336000000.0,152.0,15
47.0,22.4627742767,63.36,0.036,7.97e-09,336000000.0,152.0,15
48.0,22.49080257413,64.24,0.036,7.97e-09,336000000.0,152.0,15
49.0,22.51883087156,65.12,0.036,7.97e-09,336000000.0,152.0,15
50.0,22.54685916899,66.0,0.036,7.97e-09,336000000.0,152.0,15
51.0,22.57488746642,62.94,0.036,7.97e-09,336000000.0,152.0,15
52.0,22.60291576385,62.88,0.036,7.97e-09,336000000.0,152.0,15
53.0,22.63094406128,62.82,0.036,7.97e-09,336000000.0,152.0,15
54.0,22.65897235871,62.76,0.036,7.97e-09,336000000.0,152.0,15
55.0,22.68700065614,62.7,0.036,7.97e-09,336000000.0,152.0,15
56.0,22.71502895357,62.64,0.036,7.97e-09,336000000.0,152.0,15
57.0,22.743057251,62.58,0.036,7.97e-09,336000000.0,152.0,15
58.0,22.76989078524,62.52,0.036,7.97e-09,336000000.0,152.0,15
59.0,22.79672431948,62.46,0.036,7.97e-09,336000000.0,152.0,15
60.0,22.82355785372,62.4,0.036,7.97e-09,336000000.0,152.0,15
61.0,22.85039138796,62.34,0.036,7.97e-09,336000000.0,152.0,15
62.0,22.8772249222,62.28,0.036,7.97e-09,336000000.0,152.0,15
63.0,22.90405845644,62.22,0.036,7.97e-09,336000000.0,152.0,15
64.0,22.93089199068,62.16,0.036,7.97e-09,336000000.0,152.0,15
65.0,22.95772552492,62.1,0.036,7.97e-09,336000000.0,152.0,15
66.0,22.98455905916,62.04,0.036,7.97e-09,336000000.0,152.0,15
67.0,23.0113925934,61.98,0.036,7.97e-09,336000000.0,152.0,15
68.0,23.03727664949,61.92,0.036,7.97e-09,336000000.0,152.0,15
69.0,23.06316070558,61.86,0.036,7.97e-09,336000000.0,152.0,15
70.0,23.08904476167,61.8,0.036,7.97e-09,336000000.0,152.0,15
71.0,23.11492881776,61.74,0.036,7.97e-09,336000000.0,152.0,15
72.0,23.14081287385,61.68,0.036,7.97e-09,336000000.0,152.0,15
73.0,23.16669692994,61.62,0.036,7.97e-09,336000000.0,152.0,15
74.0,23.19258098603,61.56,0.036,7.97e-09,336000000.0,152.0,15
75.0,23.21846504212,61.5,0.036,7.97e-09,336000000.0,152.0,15
76.0,23.24434909821,61.44,0.036,7.97e-09,336000000.0,152.0,15
77.0,23.2702331543,61.38,0.036,7.97e-09,336000000.0,152.0,15
78.0,23.29518527985,61.32,0.036,7.97e-09,336000000.0,152.0,15
79.0,23.3201374054,61.26,0.036,7.97e-09,336000000.0,152.0,15
80.0,23.34508953095,61.2,0.036,7.97e-09,336000000.0,152.0,15
81.0,23.3700416565,61.14,0.036,7.97e-09,336000000.0,152.0,15
82.0,23.39499378205,61.08,0.036,7.97e-09,336000000.0,152.0,15
83.0,23.4199459076,61.02,0.036,7.97e-09,336000000.0,152.0,15
84.0,23.44489803315,60.96,0.036,7.97e-09,336000000.0,152.0,15
85.0,23.4698501587,60.9,0.036,7.97e-09,336000000.0,152.0,15
86.0,23.49480228425,60.84,0.036,7.97e-09,336000000.0,152.0,15
87.0,23.5197544098,60.78,0.036,7.97e-09,336000000.0,152.0,15
88.0,23.54377288819,60.72,0.036,7.97e-09,336000000.0,152.0,15
89.0,23.56779136658,60.66,0.036,7.97e-09,336000000.0,152.0,15
90.0,23.59180984497,60.6,0.036,7.97e-09,336000000.0,152.0,15
91.0,23.61582832336,60.54,0.036,7.97e-09,336000000.0,152.0,15
92.0,23.63984680175,60.48,0.036,7.97e-09,336000000.0,152.0,15
93.0,23.66386528014,60.42,0.036,7.97e-09,336000000.0,152.0,15
94.0,23.68788375853,60.36,0.036,7.97e-09,336000000.0,152.0,15
95.0,23.71190223692,60.3,0.036,7.97e-09,336000000.0,152.0,15
96.0,23.73592071531,60.24,0.036,7.97e-09,336000000.0,152.0,15
97.0,23.7599391937,60.18,0.036,7.97e-09,336000000.0,152.0,15
98.0,23.78361244199,60.12,0.036,7.97e-09,336000000.0,152.0,15
99.0,23.80728569028,60.06,0.036,7.97e-09,336000000.0,152.0,15
100.0,23.83095893857,60.0,0.036,7.97e-09,336000000.0,152.0,15
101.0,23.85463218686,60,0.036,7.97e-09,336000000.0,152.0,15
102.0,23.87830543515,60,0.036,7.97e-09,336000000.0,152.0,15
103.0,23.90197868344,60,0.036,7.97e-09,336000000.0,152.0,15
104.0,23.92565193173,60,0.036,7.97e-09,336000000.0,152.0,15
105.0,23.94932518002,60,0.036,7.97e-09,336000000.0,152.0,15
106.0,23.97299842831,60,0.036,7.97e-09,336000000.0,152.0,15
107.0,23.9966716766,60,0.036,7.97e-09,336000000.0,152.0,15
108.0,24.02021236416,60,0.036,7.97e-09,336000000.0,152.0,15
109.0,24.04375305172,60,0.036,7.97e-09,336000000.0,152.0,15
110.0,24.06729373928,60,0.036,7.97e-09,336000000.0,152.0,15
111.0,24.09083442684,60,0.036,7.97e-09,336000000.0,152.0,15
112.0,24.1143751144,60,0.036,7.97e-09,336000000.0,152.0,15
113.0,24.13791580196,60,0.036,7.97e-09,336000000.0,152.0,15
114.0,24.16145648952,60,0.036,7.97e-09,336000000.0,152.0,15
115.0,24.18499717708,60,0.036,7.97e-09,336000000.0,152.0,15
116.0,24.20853786464,60,0.036,7.97e-09,336000000.0,152.0,15
117.0,24.2320785522,60,0.036,7.97e-09,336000000.0,152.0,15
118.0,24.25546588894,60,0.036,7.97e-09,336000000.0,152.0,15
119.0,24.27885322568,60,0.036,7.97e-09,336000000.0,152.0,15
120.0,24.30224056242,60,0.036,7.97e-09,336000000.0,152.0,15
121.0,24.32562789916,60,0.036,7.97e-09,336000000.0,152.0,15
122.0,24.3490152359,60,0.036,7.97e-09,336000000.0,152.0,15
123.0,24.37240257264,60,0.036,7.97e-09,336000000.0,152.0,15
124.0,24.39578990938,60,0.036,7.97e-09,336000000.0,152.0,15
125.0,24.41917724612,60,0.036,7.97e-09,336000000.0,152.0,15
126.0,24.44256458286,60,0.036,7.97e-09,336000000.0,152.0,15
127.0,24.4659519196,60,0.036,7.97e-09,336000000.0,152.0,15
128.0,24.48918533329,60,0.036,7.97e-09,336000000.0,152.0,15
129.0,24.51241874698,60,0.036,7.97e-09,336000000.0,152.0,15
130.0,24.53565216067,60,0.036,7.97e-09,336000000.0,152.0,15
131.0,24.55888557436,60,0.036,7.97e-09,336000000.0,152.0,15
132.0,24.58211898805,60,0.036,7.97e-09,336000000.0,152.0,15
133.0,24.60535240174,60,0.036,7.97e-09,336000000.0,152.0,15
134.0,24.62858581543,60,0.036,7.97e-09,336000000.0,152.0,15
135.0,24.65181922912,60,0.036,7.97e-09,336000000.0,152.0,15
136.0,24.67505264281,60,0.036,7.97e-09,336000000.0,152.0,15
137.0,24.6982860565,60,0.036,7.97e-09,336000000.0,152.0,15
138.0,24.72136688231,60,0.036,7.97e-09,336000000.0,152.0,15
139.0,24.74444770812,60,0.036,7.97e-09,336000000.0,152.0,15
140.0,24.76752853393,60,0.036,7.97e-09,336000000.0,152.0,15
141.0,24.79060935974,60,0.036,7.97e-09,336000000.0,152.0,15
142.0,24.81369018555,60,0.036,7.97e-09,336000000.0,152.0,15
143.0,24.83677101136,60,0.036,7.97e-09,336000000.0,152.0,15
144.0,24.85985183717,60,0.036,7.97e-09,336000000.0,152.0,15
145.0,24.88293266298,60,0.036,7.97e-09,336000000.0,152.0,15
146.0,24.90601348879,60,0.036,7.97e-09,336000000.0,152.0,15
147.0,24.9290943146,60,0.036,7.97e-09,336000000.0,152.0,15
148.0,24.95202388766,60,0.036,7.97e-09,336000000.0,152.0,15
149.0,24.97495346072,60,0.036,7.97e-09,336000000.0,152.0,15
150.0,24.99788303378,60,0.036,7.97e-09,336000000.0,152.0,15
151.0,25.02081260684,60,0.036,7.97e-09,336000000.0,152.0,15
152.0,25.0437421799,60,0.036,7.97e-09,336000000.0,152.0,15
153.0,25.06667175296,60,0.036,7.97e-09,336000000.0,152.0,15
154.0,25.08960132602,60,0.036,7.97e-09,336000000.0,152.0,15
155.0,25.11253089908,60,0.036,7.97e-09,336000000.0,152.0,15
156.0,25.13546047214,60,0.036,7.97e-09,336000000.0,152.0,15
157.0,25.1583900452,60,0.036,7.97e-09,336000000.0,152.0,15
158.0,25.18116931918,60,0.036,7.97e-09,336000000.0,152.0,15
159.0,25.20394859316,60,0.036,7.97e-09,336000000.0,152.0,15
160.0,25.22672786714,60,0.036,7.97e-09,336000000.0,152.0,15
161.0,25.24950714112,60,0.036,7.97e-09,336000000.0,152.0,15
162.0,25.2722864151,60,0.036,7.97e-09,336000000.0,152.0,15
163.0,25.29506568908,60,0.036,7.97e-09,336000000.0,152.0,15
164.0,25.31784496306,60,0.036,7.97e-09,336000000.0,152.0,15
165.0,25.34062423704,60,0.036,7.97e-09,336000000.0,152.0,15
166.0,25.36340351102,60,0.036,7.97e-09,336000000.0,152.0,15
167.0,25.386182785,60,0.036,7.97e-09,336000000.0,152.0,15
168.0,25.40881309506,60,0.036,7.97e-09,336000000.0,152.0,15
169.0,25.43144340512,60,0.036,7.97e-09,336000000.0,152.0,15
170.0,25.45407371518,60,0.036,7.97e-09,336000000.0,152.0,15
171.0,25.47670402524,60,0.036,7.97e-09,336000000.0,152.0,15
172.0,25.4993343353,60,0.036,7.97e-09,336000000.0,152.0,15
173.0,25.52196464536,60,0.036,7.97e-09,336000000.0,152.0,15
174.0,25.54459495542,60,0.036,7.97e-09,336000000.0,152.0,15
175.0,25.56722526548,60,0.036,7.97e-09,336000000.0,152.0,15
176.0,25.58985557554,60,0.036,7.97e-09,336000000.0,152.0,15
177.0,25.6124858856,60,0.036,7.97e-09,336000000.0,152.0,15
178.0,25.63496818541,60,0.036,7.97e-09,336000000.0,152.0,15
179.0,25.65745048522,60,0.036,7.97e-09,336000000.0,152.0,15
180.0,25.67993278503,60,0.036,7.97e-09,336000000.0,152.0,15
181.0,25.70241508484,60,0.036,7.97e-09,336000000.0,152.0,15
182.0,25.72489738465,60,0.036,7.97e-09,336000000.0,152.0,15
183.0,25.74737968446,60,0.036,7.97e-09,336000000.0,152.0,15
184.0,25.76986198427,60,0.036,7.97e-09,336000000.0,152.0,15
185.0,25.79234428408,60,0.036,7.97e-09,336000000.0,152.0,15
186.0,25.81482658389,60,0.036,7.97e-09,336000000.0,152.0,15
187.0,25.8373088837,60,0.036,7.97e-09,336000000.0,152.0,15
188.0,25.85964412692,60,0.036,7.97e-09,336000000.0,152.0,15
189.0,25.88197937014,60,0.036,7.97e-09,336000000.0,152.0,15
190.0,25.90431461336,60,0.036,7.97e-09,336000000.0,152.0,15
191.0,25.92664985658,60,0.036,7.97e-09,336000000.0,152.0,15
192.0,25.9489850998,60,0.036,7.97e-09,336000000.0,152.0,15
193.0,25.97132034302,60,0.036,7.97e-09,336000000.0,152.0,15
194.0,25.99365558624,60,0.036,7.97e-09,336000000.0,152.0,15
195.0,26.01599082946,60,0.036,7.97e-09,336000000.0,152.0,15
196.0,26.03832607268,60,0.036,7.97e-09,336000000.0,152.0,15
197.0,26.0606613159,60,0.036,7.97e-09,336000000.0,152.0,15
198.0,26.08285064696,60,0.036,7.97e-09,336000000.0,152.0,15
199.0,26.10503997802,60,0.036,7.97e-09,336000000.0,152.0,15
200.0,26.12722930908,60,0.036,7.97e-09,336000000.0,152.0,15
201.0,26.14941864014,60,0.036,7.97e-09,336000000.0,152.0,15
202.0,26.1716079712,60,0.036,7.97e-09,336000000.0,152.0,15
203.0,26.19379730226,60,0.036,7.97e-09,336000000.0,152.0,15
204.0,26.21598663332,60,0.036,7.97e-09,336000000.0,152.0,15
205.0,26.23817596438,60,0.036,7.97e-09,336000000.0,152.0,15
206.0,26.26036529544,60,0.036,7.97e-09,336000000.0,152.0,15
207.0,26.2825546265,60,0.036,7.97e-09,336000000.0,152.0,15
208.0,26.30459861759,60,0.036,7.97e-09,336000000.0,152.0,15
209.0,26.32664260868,60,0.036,7.97e-09,336000000.0,152.0,15
210.0,26.34868659977,60,0.036,7.97e-09,336000000.0,152.0,15
211.0,26.37073059086,60,0.036,7.97e-09,336000000.0,152.0,15
212.0,26.39277458195,60,0.036,7.97e-09,336000000.0,152.0,15
213.0,26.41481857304,60,0.036,7.97e-09,336000000.0,152.0,15
214.0,26.43686256413,60,0.036,7.97e-09,336000000.0,152.0,15
215.0,26.45890655522,60,0.036,7.97e-09,336000000.0,152.0,15
216.0,26.48095054631,60,0.036,7.97e-09,336000000.0,152.0,15
217.0,26.5029945374,60,0.036,7.97e-09,336000000.0,152.0,15
218.0,26.5248947144,60,0.036,7.97e-09,336000000.0,152.0,15
219.0,26.5467948914,60,0.036,7.97e-09,336000000.0,152.0,15
220.0,26.5686950684,60,0.036,7.97e-09,336000000.0,152.0,15
221.0,26.5905952454,60,0.036,7.97e-09,336000000.0,152.0,15
222.0,26.6124954224,60,0.036,7.97e-09,336000000.0,152.0,15
223.0,26.6343955994,60,0.036,7.97e-09,336000000.0,152.0,15
224.0,26.6562957764,60,0.036,7.97e-09,336000000.0,152.0,15
225.0,26.6781959534,60,0.036,7.97e-09,336000000.0,152.0,15
226.0,26.7000961304,60,0.036,7.97e-09,336000000.0,152.0,15
227.0,26.7219963074,60,0.036,7.97e-09,336000000.0,152.0,15
228.0,26.74375305178,60,0.036,7.97e-09,336000000.0,152.0,15
229.0,26.76550979616,60,0.036,7.97e-09,336000000.0,152.0,15
230.0,26.78726654054,60,0.036,7.97e-09,336000000.0,152.0,15
231.0,26.80902328492,60,0.036,7.97e-09,336000000.0,152.0,15
232.0,26.8307800293,60,0.036,7.97e-09,336000000.0,152.0,15
233.0,26.85253677368,60,0.036,7.97e-09,336000000.0,152.0,15
234.0,26.87429351806,60,0.036,7.97e-09,336000000.0,152.0,15
235.0,26.89605026244,60,0.036,7.97e-09,336000000.0,152.0,15
236.0,26.91780700682,60,0.036,7.97e-09,336000000.0,152.0,15
237.0,26.9395637512,60,0.036,7.97e-09,336000000.0,152.0,15
238.0,26.96117839811,60,0.036,7.97e-09,336000000.0,152.0,15
239.0,26.98279304502,60,0.036,7.97e-09,336000000.0,152.0,15
240.0,27.00440769193,60,0.036,7.97e-09,336000000.0,152.0,15
241.0,27.02602233884,60,0.036,7.97e-09,336000000.0,152.0,15
242.0,27.04763698575,60,0.036,7.97e-09,336000000.0,152.0,15
243.0,27.06925163266,60,0.036,7.97e-09,336000000.0,152.0,15
244.0,27.09086627957,60,0.036,7.97e-09,336000000.0,152.0,15
245.0,27.11248092648,60,0.036,7.97e-09,336000000.0,152.0,15
246.0,27.13409557339,60,0.036,7.97e-09,336000000.0,152.0,15
247.0,27.1557102203,60,0.036,7.97e-09,336000000.0,152.0,15
248.0,27.17718353268,60,0.036,7.97e-09,336000000.0,152.0,15
249.0,27.19865684506,60,0.036,7.97e-09,336000000.0,152.0,15
250.0,27.22013015744,60,0.036,7.97e-09,336000000.0,152.0,15
251.0,27.24160346982,60,0.036,7.97e-09,336000000.0,152.0,15
252.0,27.2630767822,60,0.036,7.97e-09,336000000.0,152.0,15
253.0,27.28455009458,60,0.036,7.97e-09,336000000.0,152.0,15
254.0,27.30602340696,60,0.036,7.97e-09,336000000.0,152.0,15
255.0,27.32749671934,60,0.036,7.97e-09,336000000.0,152.0,15
256.0,27.34897003172,60,0.036,7.97e-09,336000000.0,152.0,15
257.0,27.3704433441,60,0.036,7.97e-09,336000000.0,152.0,15
258.0,27.39177627562,60,0.036,7.97e-09,336000000.0,152.0,15
259.0,27.41310920714,60,0.036,7.97e-09,336000000.0,152.0,15
260.0,27.43444213866,60,0.036,7.97e-09,336000000.0,152.0,15
261.0,27.45577507018,60,0.036,7.97e-09,336000000.0,152.0,15
262.0,27.4771080017,60,0.036,7.97e-09,336000000.0,152.0,15
263.0,27.49844093322,60,0.036,7.97e-09,336000000.0,152.0,15
264.0,27.51977386474,60,0.036,7.97e-09,336000000.0,152.0,15
265.0,27.54110679626,60,0.036,7.97e-09,336000000.0,152.0,15
266.0,27.56243972778,60,0.036,7.97e-09,336000000.0,152.0,15
267.0,27.5837726593,60,0.036,7.97e-09,336000000.0,152.0,15
268.0,27.60496616363,60,0.036,7.97e-09,336000000.0,152.0,15
269.0,27.62615966796,60,0.036,7.97e-09,336000000.0,152.0,15
270.0,27.64735317229,60,0.036,7.97e-09,336000000.0,152.0,15
271.0,27.66854667662,60,0.036,7.97e-09,336000000.0,152.0,15
272.0,27.68974018095,60,0.036,7.97e-09,336000000.0,152.0,15
273.0,27.71093368528,60,0.036,7.97e-09,336000000.0,152.0,15
274.0,27.73212718961,60,0.036,7.97e-09,336000000.0,152.0,15
275.0,27.75332069394,60,0.036,7.97e-09,336000000.0,152.0,15
276.0,27.77451419827,60,0.036,7.97e-09,336000000.0,152.0,15
277.0,27.7957077026,60,0.036,7.97e-09,336000000.0,152.0,15
278.0,27.81676254269,60,0.036,7.97e-09,336000000.0,152.0,15
279.0,27.83781738278,60,0.036,7.97e-09,336000000.0,152.0,15
280.0,27.85887222287,60,0.036,7.97e-09,336000000.0,152.0,15
281.0,27.87992706296,60,0.036,7.97e-09,336000000.0,152.0,15
282.0,27.90098190305,60,0.036,7.97e-09,336000000.0,152.0,15
283.0,27.92203674314,60,0.036,7.97e-09,336000000.0,152.0,15
284.0,27.94309158323,60,0.036,7.97e-09,336000000.0,152.0,15
285.0,27.96414642332,60,0.036,7.97e-09,336000000.0,152.0,15
286.0,27.98520126341,60,0.036,7.97e-09,336000000.0,152.0,15
287.0,28.0062561035,60,0.036,7.97e-09,336000000.0,152.0,15
288.0,28.02717323302,60,0.036,7.97e-09,336000000.0,152.0,15
289.0,28.04809036254,60,0.036,7.97e-09,336000000.0,152.0,15
290.0,28.06900749206,60,0.036,7.97e-09,336000000.0,152.0,15
291.0,28.08992462158,60,0.036,7.97e-09,336000000.0,152.0,15
292.0,28.1108417511,60,0.036,7.97e-09,336000000.0,152.0,15
293.0,28.13175888062,60,0.036,7.97e-09,336000000.0,152.0,15
294.0,28.15267601014,60,0.036,7.97e-09,336000000.0,152.0,15
295.0,28.17359313966,60,0.036,7.97e-09,336000000.0,152.0,15
296.0,28.19451026918,60,0.036,7.97e-09,336000000.0,152.0,15
297.0,28.2154273987,60,0.036,7.97e-09,336000000.0,152.0,15
298.0,28.23620796205,60,0.036,7.97e-09,336000000.0,152.0,15
299.0,28.2569885254,60,0.036,7.97e-09,336000000.0,152.0,15
300.0,28.27776908875,60,0.036,7.97e-09,336000000.0,152.0,15
301.0,28.2985496521,60,0.036,7.97e-09,336000000.0,152.0,15
302.0,28.31933021545,60,0.036,7.97e-09,336000000.0,152.0,15
303.0,28.3401107788,60,0.036,7.97e-09,336000000.0,152.0,15
304.0,28.36089134215,60,0.036,7.97e-09,336000000.0,152.0,15
305.0,28.3816719055,60,0.036,7.97e-09,336000000.0,152.0,15
306.0,28.40245246885,60,0.036,7.97e-09,336000000.0,152.0,15
307.0,28.4232330322,60,0.036,7.97e-09,336000000.0,152.0,15
308.0,28.4438776016,60,0.036,7.97e-09,336000000.0,152.0,15
309.0,28.464522171,60,0.036,7.97e-09,336000000.0,152.0,15
310.0,28.4851667404,60,0.036,7.97e-09,336000000.0,152.0,15
311.0,28.5058113098,60,0.036,7.97e-09,336000000.0,152.0,15
312.0,28.5264558792,60,0.036,7.97e-09,336000000.0,152.0,15
313.0,28.5471004486,60,0.036,7.97e-09,336000000.0,152.0,15
314.0,28.567745018,60,0.036,7.97e-09,336000000.0,152.0,15
315.0,28.5883895874,60,0.036,7.97e-09,336000000.0,152.0,15
316.0,28.6090341568,60,0.036,7.97e-09,336000000.0,152.0,15
317.0,28.6296787262,60,0.036,7.97e-09,336000000.0,152.0,15
318.0,28.65018825531,60,0.036,7.97e-09,336000000.0,152.0,15
319.0,28.67069778442,60,0.036,7.97e-09,336000000.0,152.0,15
320.0,28.69120731353,60,0.036,7.97e-09,336000000.0,152.0,15
321.0,28.71171684264,60,0.036,7.97e-09,336000000.0,152.0,15
322.0,28.73222637175,60,0.036,7.97e-09,336000000.0,152.0,15
323.0,28.75273590086,60,0.036,7.97e-09,336000000.0,152.0,15
324.0,28.77324542997,60,0.036,7.97e-09,336000000.0,152.0,15
325.0,28.79375495908,60,0.036,7.97e-09,336000000.0,152.0,15
326.0,28.81426448819,60,0.036,7.97e-09,336000000.0,152.0,15
327.0,28.8347740173,60,0.036,7.97e-09,336000000.0,152.0,15
328.0,28.85514965054,60,0.036,7.97e-09,336000000.0,152.0,15
329.0,28.87552528378,60,0.036,7.97e-09,336000000.0,152.0,15
330.0,28.89590091702,60,0.036,7.97e-09,336000000.0,152.0,15
