time,T_int,T_ext_1,Film_Coef,Density,Specific_Heat,Thermal_Conductivity,Radius
1.0,21.99958992,22.88,0.036,2.61e-09,971000000.0,205.0,25
2.0,21.9989585876,23.76,0.036,2.61e-09,971000000.0,205.0,25
3.0,21.9980487823,24.64,0.036,2.61e-09,971000000.0,205.0,25
4.0,21.99641036985,25.52,0.036,2.61e-09,971000000.0,205.0,25
5.0,21.9947719574,26.4,0.036,2.61e-09,971000000.0,205.0,25
6.0,21.992299556725,27.28,0.036,2.61e-09,971000000.0,205.0,25
7.0,21.98982715605,28.16,0.036,2.61e-09,971000000.0,205.0,25
8.0,21.987354755375,29.04,0.036,2.61e-09,971000000.0,205.0,25
9.0,21.9848823547,29.92,0.036,2.61e-09,971000000.0,205.0,25
10.0,21.9832832813,30.8,0.036,2.61e-09,971000000.0,205.0,25
11.0,21.9816842079,31.68,0.036,2.61e-09,971000000.0,205.0,25
12.0,21.9800851345,32.56,0.036,2.61e-09,971000000.0,205.0,25
13.0,21.9784860611,33.44,0.036,2.61e-09,971000000.0,205.0,25
14.0,21.9768869877,34.32,0.036,2.61e-09,971000000.0,205.0,25
15.0,21.9752879143,35.2,0.036,2.61e-09,971000000.0,205.0,25
16.0,21.9736888409,36.08,0.036,2.61e-09,971000000.0,205.0,25
17.0,21.9720897675,36.96,0.036,2.61e-09,971000000.0,205.0,25
18.0,21.97344379429,37.84,0.036,2.61e-09,971000000.0,205.0,25
19.0,21.97479782108,38.72,0.036,2.61e-09,971000000.0,205.0,25
20.0,21.97615184787,39.6,0.036,2.61e-09,971000000.0,205.0,25
21.0,21.97750587466,40.48,0.036,2.61e-09,971000000.0,205.0,25
22.0,21.97885990145,41.36,0.036,2.61e-09,971000000.0,205.0,25
23.0,21.98021392824,42.24,0.036,2.61e-09,971000000.0,205.0,25
24.0,21.98156795503,43.12,0.036,2.61e-09,971000000.0,205.0,25
25.0,21.98292198182,44.0,0.036,2.61e-09,971000000.0,205.0,25
26.0,21.98427600861,44.88,0.036,2.61e-09,971000000.0,205.0,25
27.0,21.9856300354,45.76,0.036,2.61e-09,971000000.0,205.0,25
28.0,21.99069004059,46.64,0.036,2.61e-09,971000000.0,205.0,25
29.0,21.99575004578,47.52,0.036,2.61e-09,971000000.0,205.0,25
30.0,22.00081005097,48.4,0.036,2.61e-09,971000000.0,205.0,25
31.0,22.00587005616,49.28,0.036,2.61e-09,971000000.0,205.0,25
32.0,22.01093006135,50.16,0.036,2.61e-09,971000000.0,205.0,25
33.0,22.01599006654,51.04,0.036,2.61e-09,971000000.0,205.0,25
34.0,22.02105007173,51.92,0.036,2.61e-09,971000000.0,205.0,25
35.0,22.02611007692,52.8,0.036,2.61e-09,971000000.0,205.0,25
36.0,22.03117008211,53.68,0.036,2.61e-09,971000000.0,205.0,25
37.0,22.0362300873,54.56,0.036,2.61e-09,971000000.0,205.0,25
38.0,22.04529228212,55.44,0.036,2.61e-09,971000000.0,205.0,25
39.0,22.05435447694,56.32,0.036,2.61e-09,971000000.0,205.0,25
40.0,22.06341667176,57.2,0.036,2.61e-09,971000000.0,205.0,25
41.0,22.07247886658,58.08,0.036,2.61e-09,971000000.0,205.0,25
42.0,22.0815410614,58.96,0.036,2.61e-09,971000000.0,205.0,25
43.0,22.09060325622,59.84,0.036,2.61e-09,971000000.0,205.0,25
44.0,22.09966545104,60.72,0.036,2.61e-09,971000000.0,205.0,25
45.0,22.10872764586,61.6,0.036,2.61e-09,971000000.0,205.0,25
46.0,22.11778984068,62.48,0.036,2.61e-09,971000000.0,205.0,25
47.0,22.1268520355,63.36,0.036,2.61e-09,971000000.0,205.0,25
48.0,22.13849811552,64.24,0.036,2.61e-09,971000000.0,205.0,25
49.0,22.15014419554,65.12,0.036,2.61e-09,971000000.0,205.0,25
50.0,22.16179027556,66.0,0.036,2.61e-09,971000000.0,205.0,25
51.0,22.17343635558,62.94,0.036,2.61e-09,971000000.0,205.0,25
52.0,22.1850824356,62.88,0.036,2.61e-09,971000000.0,205.0,25
53.0,22.19672851562,62.82,0.036,2.61e-09,971000000.0,205.0,25
54.0,22.20837459564,62.76,0.036,2.61e-09,971000000.0,205.0,25
55.0,22.22002067566,62.7,0.036,2.61e-09,971000000.0,205.0,25
56.0,22.23166675568,62.64,0.036,2.61e-09,971000000.0,205.0,25
57.0,22.2433128357,62.58,0.036,2.61e-09,971000000.0,205.0,25
58.0,22.25599460602,62.52,0.036,2.61e-09,971000000.0,205.0,25
59.0,22.26867637634,62.46,0.036,2.61e-09,971000000.0,205.0,25
60.0,22.28135814666,62.4,0.036,2.61e-09,971000000.0,205.0,25
61.0,22.29403991698,62.34,0.036,2.61e-09,971000000.0,205.0,25
62.0,22.3067216873,62.28,0.036,2.61e-09,971000000.0,205.0,25
63.0,22.31940345762,62.22,0.036,2.61e-09,971000000.0,205.0,25
64.0,22.33208522794,62.16,0.036,2.61e-09,971000000.0,205.0,25
65.0,22.34476699826,62.1,0.036,2.61e-09,971000000.0,205.0,25
66.0,22.35744876858,62.04,0.036,2.61e-09,971000000.0,205.0,25
67.0,22.3701305389,61.98,0.036,2.61e-09,971000000.0,205.0,25
68.0,22.38302669522,61.92,0.036,2.61e-09,971000000.0,205.0,25
69.0,22.39592285154,61.86,0.036,2.61e-09,971000000.0,205.0,25
70.0,22.40881900786,61.8,0.036,2.61e-09,971000000.0,205.0,25
71.0,22.42171516418,61.74,0.036,2.61e-09,971000000.0,205.0,25
72.0,22.4346113205,61.68,0.036,2.61e-09,971000000.0,205.0,25
73.0,22.44750747682,61.62,0.036,2.61e-09,971000000.0,205.0,25
74.0,22.46040363314,61.56,0.036,2.61e-09,971000000.0,205.0,25
75.0,22.47329978946,61.5,0.036,2.61e-09,971000000.0,205.0,25
76.0,22.48619594578,61.44,0.036,2.61e-09,971000000.0,205.0,25
77.0,22.4990921021,61.38,0.036,2.61e-09,971000000.0,205.0,25
78.0,22.51183853154,61.32,0.036,2.61e-09,971000000.0,205.0,25
79.0,22.52458496098,61.26,0.036,2.61e-09,971000000.0,205.0,25
80.0,22.53733139042,61.2,0.036,2.61e-09,971000000.0,205.0,25
81.0,22.55007781986,61.14,0.036,2.61e-09,971000000.0,205.0,25
82.0,22.5628242493,61.08,0.036,2.61e-09,971000000.0,205.0,25
83.0,22.57557067874,61.02,0.036,2.61e-09,971000000.0,205.0,25
84.0,22.58831710818,60.96,0.036,2.61e-09,971000000.0,205.0,25
85.0,22.60106353762,60.9,0.036,2.61e-09,971000000.0,205.0,25
86.0,22.61380996706,60.84,0.036,2.61e-09,971000000.0,205.0,25
87.0,22.6265563965,60.78,0.036,2.61e-09,971000000.0,205.0,25
88.0,22.63900146486,60.72,0.036,2.61e-09,971000000.0,205.0,25
89.0,22.65144653322,60.66,0.036,2.61e-09,971000000.0,205.0,25
90.0,22.66389160158,60.6,0.036,2.61e-09,971000000.0,205.0,25
91.0,22.67633666994,60.54,0.036,2.61e-09,971000000.0,205.0,25
92.0,22.6887817383,60.48,0.036,2.61e-09,971000000.0,205.0,25
93.0,22.70122680666,60.42,0.036,2.61e-09,971000000.0,205.0,25
94.0,22.71367187502,60.36,0.036,2.61e-09,971000000.0,205.0,25
95.0,22.72611694338,60.3,0.036,2.61e-09,971000000.0,205.0,25
96.0,22.73856201174,60.24,0.036,2.61e-09,971000000.0,205.0,25
97.0,22.7510070801,60.18,0.036,2.61e-09,971000000.0,205.0,25
98.0,22.76321506502,60.12,0.036,2.61e-09,971000000.0,205.0,25
99.0,22.77542304994,60.06,0.036,2.61e-09,971000000.0,205.0,25
100.0,22.78763103486,60.0,0.036,2.61e-09,971000000.0,205.0,25
101.0,22.79983901978,60,0.036,2.61e-09,971000000.0,205.0,25
102.0,22.8120470047,60,0.036,2.61e-09,971000000.0,205.0,25
103.0,22.82425498962,60,0.036,2.61e-09,971000000.0,205.0,25
104.0,22.83646297454,60,0.036,2.61e-09,971000000.0,205.0,25
105.0,22.84867095946,60,0.036,2.61e-09,971000000.0,205.0,25
106.0,22.86087894438,60,0.036,2.61e-09,971000000.0,205.0,25
107.0,22.8730869293,60,0.036,2.61e-09,971000000.0,205.0,25
108.0,22.88516254423,60,0.036,2.61e-09,971000000.0,205.0,25
109.0,22.89723815916,60,0.036,2.61e-09,971000000.0,205.0,25
110.0,22.90931377409,60,0.036,2.61e-09,971000000.0,205.0,25
111.0,22.92138938902,60,0.036,2.61e-09,971000000.0,205.0,25
112.0,22.93346500395,60,0.036,2.61e-09,971000000.0,205.0,25
113.0,22.94554061888,60,0.036,2.61e-09,971000000.0,205.0,25
114.0,22.95761623381,60,0.036,2.61e-09,971000000.0,205.0,25
115.0,22.96969184874,60,0.036,2.61e-09,971000000.0,205.0,25
116.0,22.98176746367,60,0.036,2.61e-09,971000000.0,205.0,25
117.0,22.9938430786,60,0.036,2.61e-09,971000000.0,205.0,25
118.0,23.00584297179,60,0.036,2.61e-09,971000000.0,205.0,25
119.0,23.01784286498,60,0.036,2.61e-09,971000000.0,205.0,25
120.0,23.02984275817,60,0.036,2.61e-09,971000000.0,205.0,25
121.0,23.04184265136,60,0.036,2.61e-09,971000000.0,205.0,25
122.0,23.05384254455,60,0.036,2.61e-09,971000000.0,205.0,25
123.0,23.06584243774,60,0.036,2.61e-09,971000000.0,205.0,25
124.0,23.07784233093,60,0.036,2.61e-09,971000000.0,205.0,25
125.0,23.08984222412,60,0.036,2.61e-09,971000000.0,205.0,25
126.0,23.10184211731,60,0.036,2.61e-09,971000000.0,205.0,25
127.0,23.1138420105,60,0.036,2.61e-09,971000000.0,205.0,25
128.0,23.12579059601,60,0.036,2.61e-09,971000000.0,205.0,25
129.0,23.13773918152,60,0.036,2.61e-09,971000000.0,205.0,25
130.0,23.14968776703,60,0.036,2.61e-09,971000000.0,205.0,25
131.0,23.16163635254,60,0.036,2.61e-09,971000000.0,205.0,25
132.0,23.17358493805,60,0.036,2.61e-09,971000000.0,205.0,25
133.0,23.18553352356,60,0.036,2.61e-09,971000000.0,205.0,25
134.0,23.19748210907,60,0.036,2.61e-09,971000000.0,205.0,25
135.0,23.20943069458,60,0.036,2.61e-09,971000000.0,205.0,25
136.0,23.22137928009,60,0.036,2.61e-09,971000000.0,205.0,25
137.0,23.2333278656,60,0.036,2.61e-09,971000000.0,205.0,25
138.0,23.24523448944,60,0.036,2.61e-09,971000000.0,205.0,25
139.0,23.25714111328,60,0.036,2.61e-09,971000000.0,205.0,25
140.0,23.26904773712,60,0.036,2.61e-09,971000000.0,205.0,25
141.0,23.28095436096,60,0.036,2.61e-09,971000000.0,205.0,25
142.0,23.2928609848,60,0.036,2.61e-09,971000000.0,205.0,25
143.0,23.30476760864,60,0.036,2.61e-09,971000000.0,205.0,25
144.0,23.31667423248,60,0.036,2.61e-09,971000000.0,205.0,25
145.0,23.32858085632,60,0.036,2.61e-09,971000000.0,205.0,25
146.0,23.34048748016,60,0.036,2.61e-09,971000000.0,205.0,25
147.0,23.352394104,60,0.036,2.61e-09,971000000.0,205.0,25
148.0,23.3642621994,60,0.036,2.61e-09,971000000.0,205.0,25
149.0,23.3761302948,60,0.036,2.61e-09,971000000.0,205.0,25
150.0,23.3879983902,60,0.036,2.61e-09,971000000.0,205.0,25
151.0,23.3998664856,60,0.036,2.61e-09,971000000.0,205.0,25
152.0,23.411734581,60,0.036,2.61e-09,971000000.0,205.0,25
153.0,23.4236026764,60,0.036,2.61e-09,971000000.0,205.0,25
154.0,23.4354707718,60,0.036,2.61e-09,971000000.0,205.0,25
155.0,23.4473388672,60,0.036,2.61e-09,971000000.0,205.0,25
156.0,23.4592069626,60,0.036,2.61e-09,971000000.0,205.0,25
157.0,23.471075058,60,0.036,2.61e-09,971000000.0,205.0,25
158.0,23.48290576936,60,0.036,2.61e-09,971000000.0,205.0,25
159.0,23.49473648072,60,0.036,2.61e-09,971000000.0,205.0,25
160.0,23.50656719208,60,0.036,2.61e-09,971000000.0,205.0,25
161.0,23.51839790344,60,0.036,2.61e-09,971000000.0,205.0,25
162.0,23.5302286148,60,0.036,2.61e-09,971000000.0,205.0,25
163.0,23.54205932616,60,0.036,2.61e-09,971000000.0,205.0,25
164.0,23.55389003752,60,0.036,2.61e-09,971000000.0,205.0,25
165.0,23.56572074888,60,0.036,2.61e-09,971000000.0,205.0,25
166.0,23.57755146024,60,0.036,2.61e-09,971000000.0,205.0,25
167.0,23.5893821716,60,0.036,2.61e-09,971000000.0,205.0,25
168.0,23.60117568967,60,0.036,2.61e-09,971000000.0,205.0,25
169.0,23.61296920774,60,0.036,2.61e-09,971000000.0,205.0,25
170.0,23.62476272581,60,0.036,2.61e-09,971000000.0,205.0,25
171.0,23.63655624388,60,0.036,2.61e-09,971000000.0,205.0,25
172.0,23.64834976195,60,0.036,2.61e-09,971000000.0,205.0,25
173.0,23.66014328002,60,0.036,2.61e-09,971000000.0,205.0,25
174.0,23.67193679809,60,0.036,2.61e-09,971000000.0,205.0,25
175.0,23.68373031616,60,0.036,2.61e-09,971000000.0,205.0,25
176.0,23.69552383423,60,0.036,2.61e-09,971000000.0,205.0,25
177.0,23.7073173523,60,0.036,2.61e-09,971000000.0,205.0,25
178.0,23.7190738678,60,0.036,2.61e-09,971000000.0,205.0,25
179.0,23.7308303833,60,0.036,2.61e-09,971000000.0,205.0,25
180.0,23.7425868988,60,0.036,2.61e-09,971000000.0,205.0,25
181.0,23.7543434143,60,0.036,2.61e-09,971000000.0,205.0,25
182.0,23.7660999298,60,0.036,2.61e-09,971000000.0,205.0,25
183.0,23.7778564453,60,0.036,2.61e-09,971000000.0,205.0,25
184.0,23.7896129608,60,0.036,2.61e-09,971000000.0,205.0,25
185.0,23.8013694763,60,0.036,2.61e-09,971000000.0,205.0,25
186.0,23.8131259918,60,0.036,2.61e-09,971000000.0,205.0,25
187.0,23.8248825073,60,0.036,2.61e-09,971000000.0,205.0,25
188.0,23.83660202024,60,0.036,2.61e-09,971000000.0,205.0,25
189.0,23.84832153318,60,0.036,2.61e-09,971000000.0,205.0,25
190.0,23.86004104612,60,0.036,2.61e-09,971000000.0,205.0,25
191.0,23.87176055906,60,0.036,2.61e-09,971000000.0,205.0,25
192.0,23.883480072,60,0.036,2.61e-09,971000000.0,205.0,25
193.0,23.89519958494,60,0.036,2.61e-09,971000000.0,205.0,25
194.0,23.90691909788,60,0.036,2.61e-09,971000000.0,205.0,25
195.0,23.91863861082,60,0.036,2.61e-09,971000000.0,205.0,25
196.0,23.93035812376,60,0.036,2.61e-09,971000000.0,205.0,25
197.0,23.9420776367,60,0.036,2.61e-09,971000000.0,205.0,25
198.0,23.95375995634,60,0.036,2.61e-09,971000000.0,205.0,25
199.0,23.96544227598,60,0.036,2.61e-09,971000000.0,205.0,25
200.0,23.97712459562,60,0.036,2.61e-09,971000000.0,205.0,25
201.0,23.98880691526,60,0.036,2.61e-09,971000000.0,205.0,25
202.0,24.0004892349,60,0.036,2.61e-09,971000000.0,205.0,25
203.0,24.01217155454,60,0.036,2.61e-09,971000000.0,205.0,25
204.0,24.02385387418,60,0.036,2.61e-09,971000000.0,205.0,25
205.0,24.03553619382,60,0.036,2.61e-09,971000000.0,205.0,25
206.0,24.04721851346,60,0.036,2.61e-09,971000000.0,205.0,25
207.0,24.0589008331,60,0.036,2.61e-09,971000000.0,205.0,25
208.0,24.07054595945,60,0.036,2.61e-09,971000000.0,205.0,25
209.0,24.0821910858,60,0.036,2.61e-09,971000000.0,205.0,25
210.0,24.09383621215,60,0.036,2.61e-09,971000000.0,205.0,25
211.0,24.1054813385,60,0.036,2.61e-09,971000000.0,205.0,25
212.0,24.11712646485,60,0.036,2.61e-09,971000000.0,205.0,25
213.0,24.1287715912,60,0.036,2.61e-09,971000000.0,205.0,25
214.0,24.14041671755,60,0.036,2.61e-09,971000000.0,205.0,25
215.0,24.1520618439,60,0.036,2.61e-09,971000000.0,205.0,25
216.0,24.16370697025,60,0.036,2.61e-09,971000000.0,205.0,25
217.0,24.1753520966,60,0.036,2.61e-09,971000000.0,205.0,25
218.0,24.18696022038,60,0.036,2.61e-09,971000000.0,205.0,25
219.0,24.19856834416,60,0.036,2.61e-09,971000000.0,205.0,25
220.0,24.21017646794,60,0.036,2.61e-09,971000000.0,205.0,25
221.0,24.22178459172,60,0.036,2.61e-09,971000000.0,205.0,25
222.0,24.2333927155,60,0.036,2.61e-09,971000000.0,205.0,25
223.0,24.24500083928,60,0.036,2.61e-09,971000000.0,205.0,25
224.0,24.25660896306,60,0.036,2.61e-09,971000000.0,205.0,25
225.0,24.26821708684,60,0.036,2.61e-09,971000000.0,205.0,25
226.0,24.27982521062,60,0.036,2.61e-09,971000000.0,205.0,25
227.0,24.2914333344,60,0.036,2.61e-09,971000000.0,205.0,25
228.0,24.30300407414,60,0.036,2.61e-09,971000000.0,205.0,25
229.0,24.31457481388,60,0.036,2.61e-09,971000000.0,205.0,25
230.0,24.32614555362,60,0.036,2.61e-09,971000000.0,205.0,25
231.0,24.33771629336,60,0.036,2.61e-09,971000000.0,205.0,25
232.0,24.3492870331,60,0.036,2.61e-09,971000000.0,205.0,25
233.0,24.36085777284,60,0.036,2.61e-09,971000000.0,205.0,25
234.0,24.37242851258,60,0.036,2.61e-09,971000000.0,205.0,25
235.0,24.38399925232,60,0.036,2.61e-09,971000000.0,205.0,25
236.0,24.39556999206,60,0.036,2.61e-09,971000000.0,205.0,25
237.0,24.4071407318,60,0.036,2.61e-09,971000000.0,205.0,25
238.0,24.41867446898,60,0.036,2.61e-09,971000000.0,205.0,25
239.0,24.43020820616,60,0.036,2.61e-09,971000000.0,205.0,25
240.0,24.44174194334,60,0.036,2.61e-09,971000000.0,205.0,25
241.0,24.45327568052,60,0.036,2.61e-09,971000000.0,205.0,25
242.0,24.4648094177,60,0.036,2.61e-09,971000000.0,205.0,25
243.0,24.47634315488,60,0.036,2.61e-09,971000000.0,205.0,25
244.0,24.48787689206,60,0.036,2.61e-09,971000000.0,205.0,25
245.0,24.49941062924,60,0.036,2.61e-09,971000000.0,205.0,25
246.0,24.51094436642,60,0.036,2.61e-09,971000000.0,205.0,25
247.0,24.5224781036,60,0.036,2.61e-09,971000000.0,205.0,25
248.0,24.53397464749,60,0.036,2.61e-09,971000000.0,205.0,25
249.0,24.54547119138,60,0.036,2.61e-09,971000000.0,205.0,25
250.0,24.55696773527,60,0.036,2.61e-09,971000000.0,205.0,25
251.0,24.56846427916,60,0.036,2.61e-09,971000000.0,205.0,25
252.0,24.57996082305,60,0.036,2.61e-09,971000000.0,205.0,25
253.0,24.59145736694,60,0.036,2.61e-09,971000000.0,205.0,25
254.0,24.60295391083,60,0.036,2.61e-09,971000000.0,205.0,25
255.0,24.61445045472,60,0.036,2.61e-09,971000000.0,205.0,25
256.0,24.62594699861,60,0.036,2.61e-09,971000000.0,205.0,25
257.0,24.6374435425,60,0.036,2.61e-09,971000000.0,205.0,25
258.0,24.64890308382,60,0.036,2.61e-09,971000000.0,205.0,25
259.0,24.66036262514,60,0.036,2.61e-09,971000000.0,205.0,25
260.0,24.67182216646,60,0.036,2.61e-09,971000000.0,205.0,25
261.0,24.68328170778,60,0.036,2.61e-09,971000000.0,205.0,25
262.0,24.6947412491,60,0.036,2.61e-09,971000000.0,205.0,25
263.0,24.70620079042,60,0.036,2.61e-09,971000000.0,205.0,25
264.0,24.71766033174,60,0.036,2.61e-09,971000000.0,205.0,25
265.0,24.72911987306,60,0.036,2.61e-09,971000000.0,205.0,25
266.0,24.74057941438,60,0.036,2.61e-09,971000000.0,205.0,25
267.0,24.7520389557,60,0.036,2.61e-09,971000000.0,205.0,25
268.0,24.76346168519,60,0.036,2.61e-09,971000000.0,205.0,25
269.0,24.77488441468,60,0.036,2.61e-09,971000000.0,205.0,25
270.0,24.78630714417,60,0.036,2.61e-09,971000000.0,205.0,25
271.0,24.79772987366,60,0.036,2.61e-09,971000000.0,205.0,25
272.0,24.80915260315,60,0.036,2.61e-09,971000000.0,205.0,25
273.0,24.82057533264,60,0.036,2.61e-09,971000000.0,205.0,25
274.0,24.83199806213,60,0.036,2.61e-09,971000000.0,205.0,25
275.0,24.84342079162,60,0.036,2.61e-09,971000000.0,205.0,25
276.0,24.85484352111,60,0.036,2.61e-09,971000000.0,205.0,25
277.0,24.8662662506,60,0.036,2.61e-09,971000000.0,205.0,25
278.0,24.87765178679,60,0.036,2.61e-09,971000000.0,205.0,25
279.0,24.88903732298,60,0.036,2.61e-09,971000000.0,205.0,25
280.0,24.90042285917,60,0.036,2.61e-09,971000000.0,205.0,25
281.0,24.91180839536,60,0.036,2.61e-09,971000000.0,205.0,25
282.0,24.92319393155,60,0.036,2.61e-09,971000000.0,205.0,25
283.0,24.93457946774,60,0.036,2.61e-09,971000000.0,205.0,25
284.0,24.94596500393,60,0.036,2.61e-09,971000000.0,205.0,25
285.0,24.95735054012,60,0.036,2.61e-09,971000000.0,205.0,25
286.0,24.96873607631,60,0.036,2.61e-09,971000000.0,205.0,25
287.0,24.9801216125,60,0.036,2.61e-09,971000000.0,205.0,25
288.0,24.99147071834,60,0.036,2.61e-09,971000000.0,205.0,25
289.0,25.00281982418,60,0.036,2.61e-09,971000000.0,205.0,25
290.0,25.01416893002,60,0.036,2.61e-09,971000000.0,205.0,25
291.0,25.02551803586,60,0.036,2.61e-09,971000000.0,205.0,25
292.0,25.0368671417,60,0.036,2.61e-09,971000000.0,205.0,25
293.0,25.04821624754,60,0.036,2.61e-09,971000000.0,205.0,25
294.0,25.05956535338,60,0.036,2.61e-09,971000000.0,205.0,25
295.0,25.07091445922,60,0.036,2.61e-09,971000000.0,205.0,25
296.0,25.08226356506,60,0.036,2.61e-09,971000000.0,205.0,25
297.0,25.0936126709,60,0.036,2.61e-09,971000000.0,205.0,25
298.0,25.10492477417,60,0.036,2.61e-09,971000000.0,205.0,25
299.0,25.11623687744,60,0.036,2.61e-09,971000000.0,205.0,25
300.0,25.12754898071,60,0.036,2.61e-09,971000000.0,205.0,25
301.0,25.13886108398,60,0.036,2.61e-09,971000000.0,205.0,25
302.0,25.15017318725,60,0.036,2.61e-09,971000000.0,205.0,25
303.0,25.16148529052,60,0.036,2.61e-09,971000000.0,205.0,25
304.0,25.17279739379,60,0.036,2.61e-09,971000000.0,205.0,25
305.0,25.18410949706,60,0.036,2.61e-09,971000000.0,205.0,25
306.0,25.19542160033,60,0.036,2.61e-09,971000000.0,205.0,25
307.0,25.2067337036,60,0.036,2.61e-09,971000000.0,205.0,25
308.0,25.21800937651,60,0.036,2.61e-09,971000000.0,205.0,25
309.0,25.22928504942,60,0.036,2.61e-09,971000000.0,205.0,25
310.0,25.24056072233,60,0.036,2.61e-09,971000000.0,205.0,25
311.0,25.25183639524,60,0.036,2.61e-09,971000000.0,205.0,25
312.0,25.26311206815,60,0.036,2.61e-09,971000000.0,205.0,25
313.0,25.27438774106,60,0.036,2.61e-09,971000000.0,205.0,25
314.0,25.28566341397,60,0.036,2.61e-09,971000000.0,205.0,25
315.0,25.29693908688,60,0.036,2.61e-09,971000000.0,205.0,25
316.0,25.30821475979,60,0.036,2.61e-09,971000000.0,205.0,25
317.0,25.3194904327,60,0.036,2.61e-09,971000000.0,205.0,25
318.0,25.33072967526,60,0.036,2.61e-09,971000000.0,205.0,25
319.0,25.34196891782,60,0.036,2.61e-09,971000000.0,205.0,25
320.0,25.35320816038,60,0.036,2.61e-09,971000000.0,205.0,25
321.0,25.36444740294,60,0.036,2.61e-09,971000000.0,205.0,25
322.0,25.3756866455,60,0.036,2.61e-09,971000000.0,205.0,25
323.0,25.38692588806,60,0.036,2.61e-09,971000000.0,205.0,25
324.0,25.39816513062,60,0.036,2.61e-09,971000000.0,205.0,25
325.0,25.40940437318,60,0.036,2.61e-09,971000000.0,205.0,25
326.0,25.42064361574,60,0.036,2.61e-09,971000000.0,205.0,25
327.0,25.4318828583,60,0.036,2.61e-09,971000000.0,205.0,25
328.0,25.44308567049,60,0.036,2.61e-09,971000000.0,205.0,25
329.0,25.45428848268,60,0.036,2.61e-09,971000000.0,205.0,25
330.0,25.46549129487,60,0.036,2.61e-09,971000000.0,205.0,25
