time,T_int,T_ext_1,Film_Coef,Density,Specific_Heat,Thermal_Conductivity,Radius
1.0,21.9855690002,22.88,0.036,7.77e-09,586000000.0,112.0,15
2.0,21.9739589691,23.76,0.036,7.77e-09,586000000.0,112.0,15
3.0,21.9642963409,24.64,0.036,7.77e-09,586000000.0,112.0,15
4.0,21.95706939695,25.52,0.036,7.77e-09,586000000.0,112.0,15
5.0,21.949842453,26.4,0.036,7.77e-09,586000000.0,112.0,15
6.0,21.945844650275,27.28,0.036,7.77e-09,586000000.0,112.0,15
7.0,21.94184684755,28.16,0.036,7.77e-09,586000000.0,112.0,15
8.0,21.937849044825,29.04,0.036,7.77e-09,586000000.0,112.0,15
9.0,21.9338512421,29.92,0.036,7.77e-09,586000000.0,112.0,15
10.0,21.9349780083,30.8,0.036,7.77e-09,586000000.0,112.0,15
11.0,21.9361047745,31.68,0.036,7.77e-09,586000000.0,112.0,15
12.0,21.9372315407,32.56,0.036,7.77e-09,586000000.0,112.0,15
13.0,21.9383583069,33.44,0.036,7.77e-09,586000000.0,112.0,15
14.0,21.9394850731,34.32,0.036,7.77e-09,586000000.0,112.0,15
15.0,21.9406118393,35.2,0.036,7.77e-09,586000000.0,112.0,15
16.0,21.9417386055,36.08,0.036,7.77e-09,586000000.0,112.0,15
17.0,21.9428653717,36.96,0.036,7.77e-09,586000000.0,112.0,15
18.0,21.94992733001,37.84,0.036,7.77e-09,586000000.0,112.0,15
19.0,21.95698928832,38.72,0.036,7.77e-09,586000000.0,112.0,15
20.0,21.96405124663,39.6,0.036,7.77e-09,586000000.0,112.0,15
21.0,21.97111320494,40.48,0.036,7.77e-09,586000000.0,112.0,15
22.0,21.97817516325,41.36,0.036,7.77e-09,586000000.0,112.0,15
23.0,21.98523712156,42.24,0.036,7.77e-09,586000000.0,112.0,15
24.0,21.99229907987,43.12,0.036,7.77e-09,586000000.0,112.0,15
25.0,21.99936103818,44.0,0.036,7.77e-09,586000000.0,112.0,15
26.0,22.00642299649,44.88,0.036,7.77e-09,586000000.0,112.0,15
27.0,22.0134849548,45.76,0.036,7.77e-09,586000000.0,112.0,15
28.0,22.0263542175,46.64,0.036,7.77e-09,586000000.0,112.0,15
29.0,22.0392234802,47.52,0.036,7.77e-09,586000000.0,112.0,15
30.0,22.0520927429,48.4,0.036,7.77e-09,586000000.0,112.0,15
31.0,22.0649620056,49.28,0.036,7.77e-09,586000000.0,112.0,15
32.0,22.0778312683,50.16,0.036,7.77e-09,586000000.0,112.0,15
33.0,22.090700531,51.04,0.036,7.77e-09,586000000.0,112.0,15
34.0,22.1035697937,51.92,0.036,7.77e-09,586000000.0,112.0,15
35.0,22.1164390564,52.8,0.036,7.77e-09,586000000.0,112.0,15
36.0,22.1293083191,53.68,0.036,7.77e-09,586000000.0,112.0,15
37.0,22.1421775818,54.56,0.036,7.77e-09,586000000.0,112.0,15
38.0,22.16081333162,55.44,0.036,7.77e-09,586000000.0,112.0,15
39.0,22.17944908144,56.32,0.036,7.77e-09,586000000.0,112.0,15
40.0,22.19808483126,57.2,0.036,7.77e-09,586000000.0,112.0,15
41.0,22.21672058108,58.08,0.036,7.77e-09,586000000.0,112.0,15
42.0,22.2353563309,58.96,0.036,7.77e-09,586000000.0,112.0,15
43.0,22.25399208072,59.84,0.036,7.77e-09,586000000.0,112.0,15
44.0,22.27262783054,60.72,0.036,7.77e-09,586000000.0,112.0,15
45.0,22.29126358036,61.6,0.036,7.77e-09,586000000.0,112.0,15
46.0,22.30989933018,62.48,0.036,7.77e-09,586000000.0,112.0,15
47.0,22.32853508,63.36,0.036,7.77e-09,586000000.0,112.0,15
48.0,22.34782314304,64.24,0.036,7.77e-09,586000000.0,112.0,15
49.0,22.36711120608,65.12,0.036,7.77e-09,586000000.0,112.0,15
50.0,22.38639926912,66.0,0.036,7.77e-09,586000000.0,112.0,15
51.0,22.40568733216,62.94,0.036,7.77e-09,586000000.0,112.0,15
52.0,22.4249753952,62.88,0.036,7.77e-09,586000000.0,112.0,15
53.0,22.44426345824,62.82,0.036,7.77e-09,586000000.0,112.0,15
54.0,22.46355152128,62.76,0.036,7.77e-09,586000000.0,112.0,15
55.0,22.48283958432,62.7,0.036,7.77e-09,586000000.0,112.0,15
56.0,22.50212764736,62.64,0.036,7.77e-09,586000000.0,112.0,15
57.0,22.5214157104,62.58,0.036,7.77e-09,586000000.0,112.0,15
58.0,22.539707756,62.52,0.036,7.77e-09,586000000.0,112.0,15
59.0,22.5579998016,62.46,0.036,7.77e-09,586000000.0,112.0,15
60.0,22.5762918472,62.4,0.036,7.77e-09,586000000.0,112.0,15
61.0,22.5945838928,62.34,0.036,7.77e-09,586000000.0,112.0,15
62.0,22.6128759384,62.28,0.036,7.77e-09,586000000.0,112.0,15
63.0,22.631167984,62.22,0.036,7.77e-09,586000000.0,112.0,15
64.0,22.6494600296,62.16,0.036,7.77e-09,586000000.0,112.0,15
65.0,22.6677520752,62.1,0.036,7.77e-09,586000000.0,112.0,15
66.0,22.6860441208,62.04,0.036,7.77e-09,586000000.0,112.0,15
67.0,22.7043361664,61.98,0.036,7.77e-09,586000000.0,112.0,15
68.0,22.72196559908,61.92,0.036,7.77e-09,586000000.0,112.0,15
69.0,22.73959503176,61.86,0.036,7.77e-09,586000000.0,112.0,15
70.0,22.75722446444,61.8,0.036,7.77e-09,586000000.0,112.0,15
71.0,22.77485389712,61.74,0.036,7.77e-09,586000000.0,112.0,15
72.0,22.7924833298,61.68,0.036,7.77e-09,586000000.0,112.0,15
73.0,22.81011276248,61.62,0.036,7.77e-09,586000000.0,112.0,15
74.0,22.82774219516,61.56,0.036,7.77e-09,586000000.0,112.0,15
75.0,22.84537162784,61.5,0.036,7.77e-09,586000000.0,112.0,15
76.0,22.86300106052,61.44,0.036,7.77e-09,586000000.0,112.0,15
77.0,22.8806304932,61.38,0.036,7.77e-09,586000000.0,112.0,15
78.0,22.89766235355,61.32,0.036,7.77e-09,586000000.0,112.0,15
79.0,22.9146942139,61.26,0.036,7.77e-09,586000000.0,112.0,15
80.0,22.93172607425,61.2,0.036,7.77e-09,586000000.0,112.0,15
81.0,22.9487579346,61.14,0.036,7.77e-09,586000000.0,112.0,15
82.0,22.96578979495,61.08,0.036,7.77e-09,586000000.0,112.0,15
83.0,22.9828216553,61.02,0.036,7.77e-09,586000000.0,112.0,15
84.0,22.99985351565,60.96,0.036,7.77e-09,586000000.0,112.0,15
85.0,23.016885376,60.9,0.036,7.77e-09,586000000.0,112.0,15
86.0,23.03391723635,60.84,0.036,7.77e-09,586000000.0,112.0,15
87.0,23.0509490967,60.78,0.036,7.77e-09,586000000.0,112.0,15
88.0,23.06739425661,60.72,0.036,7.77e-09,586000000.0,112.0,15
89.0,23.08383941652,60.66,0.036,7.77e-09,586000000.0,112.0,15
90.0,23.10028457643,60.6,0.036,7.77e-09,586000000.0,112.0,15
91.0,23.11672973634,60.54,0.036,7.77e-09,586000000.0,112.0,15
92.0,23.13317489625,60.48,0.036,7.77e-09,586000000.0,112.0,15
93.0,23.14962005616,60.42,0.036,7.77e-09,586000000.0,112.0,15
94.0,23.16606521607,60.36,0.036,7.77e-09,586000000.0,112.0,15
95.0,23.18251037598,60.3,0.036,7.77e-09,586000000.0,112.0,15
96.0,23.19895553589,60.24,0.036,7.77e-09,586000000.0,112.0,15
97.0,23.2154006958,60.18,0.036,7.77e-09,586000000.0,112.0,15
98.0,23.2316827774,60.12,0.036,7.77e-09,586000000.0,112.0,15
99.0,23.247964859,60.06,0.036,7.77e-09,586000000.0,112.0,15
100.0,23.2642469406,60.0,0.036,7.77e-09,586000000.0,112.0,15
101.0,23.2805290222,60,0.036,7.77e-09,586000000.0,112.0,15
102.0,23.2968111038,60,0.036,7.77e-09,586000000.0,112.0,15
103.0,23.3130931854,60,0.036,7.77e-09,586000000.0,112.0,15
104.0,23.329375267,60,0.036,7.77e-09,586000000.0,112.0,15
105.0,23.3456573486,60,0.036,7.77e-09,586000000.0,112.0,15
106.0,23.3619394302,60,0.036,7.77e-09,586000000.0,112.0,15
107.0,23.3782215118,60,0.036,7.77e-09,586000000.0,112.0,15
108.0,23.39447422024,60,0.036,7.77e-09,586000000.0,112.0,15
109.0,23.41072692868,60,0.036,7.77e-09,586000000.0,112.0,15
110.0,23.42697963712,60,0.036,7.77e-09,586000000.0,112.0,15
111.0,23.44323234556,60,0.036,7.77e-09,586000000.0,112.0,15
112.0,23.459485054,60,0.036,7.77e-09,586000000.0,112.0,15
113.0,23.47573776244,60,0.036,7.77e-09,586000000.0,112.0,15
114.0,23.49199047088,60,0.036,7.77e-09,586000000.0,112.0,15
115.0,23.50824317932,60,0.036,7.77e-09,586000000.0,112.0,15
116.0,23.52449588776,60,0.036,7.77e-09,586000000.0,112.0,15
117.0,23.5407485962,60,0.036,7.77e-09,586000000.0,112.0,15
118.0,23.55694141389,60,0.036,7.77e-09,586000000.0,112.0,15
119.0,23.57313423158,60,0.036,7.77e-09,586000000.0,112.0,15
120.0,23.58932704927,60,0.036,7.77e-09,586000000.0,112.0,15
121.0,23.60551986696,60,0.036,7.77e-09,586000000.0,112.0,15
122.0,23.62171268465,60,0.036,7.77e-09,586000000.0,112.0,15
123.0,23.63790550234,60,0.036,7.77e-09,586000000.0,112.0,15
124.0,23.65409832003,60,0.036,7.77e-09,586000000.0,112.0,15
125.0,23.67029113772,60,0.036,7.77e-09,586000000.0,112.0,15
126.0,23.68648395541,60,0.036,7.77e-09,586000000.0,112.0,15
127.0,23.7026767731,60,0.036,7.77e-09,586000000.0,112.0,15
128.0,23.71880187991,60,0.036,7.77e-09,586000000.0,112.0,15
129.0,23.73492698672,60,0.036,7.77e-09,586000000.0,112.0,15
130.0,23.75105209353,60,0.036,7.77e-09,586000000.0,112.0,15
131.0,23.76717720034,60,0.036,7.77e-09,586000000.0,112.0,15
132.0,23.78330230715,60,0.036,7.77e-09,586000000.0,112.0,15
133.0,23.79942741396,60,0.036,7.77e-09,586000000.0,112.0,15
134.0,23.81555252077,60,0.036,7.77e-09,586000000.0,112.0,15
135.0,23.83167762758,60,0.036,7.77e-09,586000000.0,112.0,15
136.0,23.84780273439,60,0.036,7.77e-09,586000000.0,112.0,15
137.0,23.8639278412,60,0.036,7.77e-09,586000000.0,112.0,15
138.0,23.87998332979,60,0.036,7.77e-09,586000000.0,112.0,15
139.0,23.89603881838,60,0.036,7.77e-09,586000000.0,112.0,15
140.0,23.91209430697,60,0.036,7.77e-09,586000000.0,112.0,15
141.0,23.92814979556,60,0.036,7.77e-09,586000000.0,112.0,15
142.0,23.94420528415,60,0.036,7.77e-09,586000000.0,112.0,15
143.0,23.96026077274,60,0.036,7.77e-09,586000000.0,112.0,15
144.0,23.97631626133,60,0.036,7.77e-09,586000000.0,112.0,15
145.0,23.99237174992,60,0.036,7.77e-09,586000000.0,112.0,15
146.0,24.00842723851,60,0.036,7.77e-09,586000000.0,112.0,15
147.0,24.0244827271,60,0.036,7.77e-09,586000000.0,112.0,15
148.0,24.04046764378,60,0.036,7.77e-09,586000000.0,112.0,15
149.0,24.05645256046,60,0.036,7.77e-09,586000000.0,112.0,15
150.0,24.07243747714,60,0.036,7.77e-09,586000000.0,112.0,15
151.0,24.08842239382,60,0.036,7.77e-09,586000000.0,112.0,15
152.0,24.1044073105,60,0.036,7.77e-09,586000000.0,112.0,15
153.0,24.12039222718,60,0.036,7.77e-09,586000000.0,112.0,15
154.0,24.13637714386,60,0.036,7.77e-09,586000000.0,112.0,15
155.0,24.15236206054,60,0.036,7.77e-09,586000000.0,112.0,15
156.0,24.16834697722,60,0.036,7.77e-09,586000000.0,112.0,15
157.0,24.1843318939,60,0.036,7.77e-09,586000000.0,112.0,15
158.0,24.20024642942,60,0.036,7.77e-09,586000000.0,112.0,15
159.0,24.21616096494,60,0.036,7.77e-09,586000000.0,112.0,15
160.0,24.23207550046,60,0.036,7.77e-09,586000000.0,112.0,15
161.0,24.24799003598,60,0.036,7.77e-09,586000000.0,112.0,15
162.0,24.2639045715,60,0.036,7.77e-09,586000000.0,112.0,15
163.0,24.27981910702,60,0.036,7.77e-09,586000000.0,112.0,15
164.0,24.29573364254,60,0.036,7.77e-09,586000000.0,112.0,15
165.0,24.31164817806,60,0.036,7.77e-09,586000000.0,112.0,15
166.0,24.32756271358,60,0.036,7.77e-09,586000000.0,112.0,15
167.0,24.3434772491,60,0.036,7.77e-09,586000000.0,112.0,15
168.0,24.35932121273,60,0.036,7.77e-09,586000000.0,112.0,15
169.0,24.37516517636,60,0.036,7.77e-09,586000000.0,112.0,15
170.0,24.39100913999,60,0.036,7.77e-09,586000000.0,112.0,15
171.0,24.40685310362,60,0.036,7.77e-09,586000000.0,112.0,15
172.0,24.42269706725,60,0.036,7.77e-09,586000000.0,112.0,15
173.0,24.43854103088,60,0.036,7.77e-09,586000000.0,112.0,15
174.0,24.45438499451,60,0.036,7.77e-09,586000000.0,112.0,15
175.0,24.47022895814,60,0.036,7.77e-09,586000000.0,112.0,15
176.0,24.48607292177,60,0.036,7.77e-09,586000000.0,112.0,15
177.0,24.5019168854,60,0.036,7.77e-09,586000000.0,112.0,15
178.0,24.51769065859,60,0.036,7.77e-09,586000000.0,112.0,15
179.0,24.53346443178,60,0.036,7.77e-09,586000000.0,112.0,15
180.0,24.54923820497,60,0.036,7.77e-09,586000000.0,112.0,15
181.0,24.56501197816,60,0.036,7.77e-09,586000000.0,112.0,15
182.0,24.58078575135,60,0.036,7.77e-09,586000000.0,112.0,15
183.0,24.59655952454,60,0.036,7.77e-09,586000000.0,112.0,15
184.0,24.61233329773,60,0.036,7.77e-09,586000000.0,112.0,15
185.0,24.62810707092,60,0.036,7.77e-09,586000000.0,112.0,15
186.0,24.64388084411,60,0.036,7.77e-09,586000000.0,112.0,15
187.0,24.6596546173,60,0.036,7.77e-09,586000000.0,112.0,15
188.0,24.6753583908,60,0.036,7.77e-09,586000000.0,112.0,15
189.0,24.6910621643,60,0.036,7.77e-09,586000000.0,112.0,15
190.0,24.7067659378,60,0.036,7.77e-09,586000000.0,112.0,15
191.0,24.7224697113,60,0.036,7.77e-09,586000000.0,112.0,15
192.0,24.7381734848,60,0.036,7.77e-09,586000000.0,112.0,15
193.0,24.7538772583,60,0.036,7.77e-09,586000000.0,112.0,15
194.0,24.7695810318,60,0.036,7.77e-09,586000000.0,112.0,15
195.0,24.7852848053,60,0.036,7.77e-09,586000000.0,112.0,15
196.0,24.8009885788,60,0.036,7.77e-09,586000000.0,112.0,15
197.0,24.8166923523,60,0.036,7.77e-09,586000000.0,112.0,15
198.0,24.83232650757,60,0.036,7.77e-09,586000000.0,112.0,15
199.0,24.84796066284,60,0.036,7.77e-09,586000000.0,112.0,15
200.0,24.86359481811,60,0.036,7.77e-09,586000000.0,112.0,15
201.0,24.87922897338,60,0.036,7.77e-09,586000000.0,112.0,15
202.0,24.89486312865,60,0.036,7.77e-09,586000000.0,112.0,15
203.0,24.91049728392,60,0.036,7.77e-09,586000000.0,112.0,15
204.0,24.92613143919,60,0.036,7.77e-09,586000000.0,112.0,15
205.0,24.94176559446,60,0.036,7.77e-09,586000000.0,112.0,15
206.0,24.95739974973,60,0.036,7.77e-09,586000000.0,112.0,15
207.0,24.973033905,60,0.036,7.77e-09,586000000.0,112.0,15
208.0,24.98859863279,60,0.036,7.77e-09,586000000.0,112.0,15
209.0,25.00416336058,60,0.036,7.77e-09,586000000.0,112.0,15
210.0,25.01972808837,60,0.036,7.77e-09,586000000.0,112.0,15
211.0,25.03529281616,60,0.036,7.77e-09,586000000.0,112.0,15
212.0,25.05085754395,60,0.036,7.77e-09,586000000.0,112.0,15
213.0,25.06642227174,60,0.036,7.77e-09,586000000.0,112.0,15
214.0,25.08198699953,60,0.036,7.77e-09,586000000.0,112.0,15
215.0,25.09755172732,60,0.036,7.77e-09,586000000.0,112.0,15
216.0,25.11311645511,60,0.036,7.77e-09,586000000.0,112.0,15
217.0,25.1286811829,60,0.036,7.77e-09,586000000.0,112.0,15
218.0,25.14417667392,60,0.036,7.77e-09,586000000.0,112.0,15
219.0,25.15967216494,60,0.036,7.77e-09,586000000.0,112.0,15
220.0,25.17516765596,60,0.036,7.77e-09,586000000.0,112.0,15
221.0,25.19066314698,60,0.036,7.77e-09,586000000.0,112.0,15
222.0,25.206158638,60,0.036,7.77e-09,586000000.0,112.0,15
223.0,25.22165412902,60,0.036,7.77e-09,586000000.0,112.0,15
224.0,25.23714962004,60,0.036,7.77e-09,586000000.0,112.0,15
225.0,25.25264511106,60,0.036,7.77e-09,586000000.0,112.0,15
226.0,25.26814060208,60,0.036,7.77e-09,586000000.0,112.0,15
227.0,25.2836360931,60,0.036,7.77e-09,586000000.0,112.0,15
228.0,25.29906272885,60,0.036,7.77e-09,586000000.0,112.0,15
229.0,25.3144893646,60,0.036,7.77e-09,586000000.0,112.0,15
230.0,25.32991600035,60,0.036,7.77e-09,586000000.0,112.0,15
231.0,25.3453426361,60,0.036,7.77e-09,586000000.0,112.0,15
232.0,25.36076927185,60,0.036,7.77e-09,586000000.0,112.0,15
233.0,25.3761959076,60,0.036,7.77e-09,586000000.0,112.0,15
234.0,25.39162254335,60,0.036,7.77e-09,586000000.0,112.0,15
235.0,25.4070491791,60,0.036,7.77e-09,586000000.0,112.0,15
236.0,25.42247581485,60,0.036,7.77e-09,586000000.0,112.0,15
237.0,25.4379024506,60,0.036,7.77e-09,586000000.0,112.0,15
238.0,25.45326061252,60,0.036,7.77e-09,586000000.0,112.0,15
239.0,25.46861877444,60,0.036,7.77e-09,586000000.0,112.0,15
240.0,25.48397693636,60,0.036,7.77e-09,586000000.0,112.0,15
241.0,25.49933509828,60,0.036,7.77e-09,586000000.0,112.0,15
242.0,25.5146932602,60,0.036,7.77e-09,586000000.0,112.0,15
243.0,25.53005142212,60,0.036,7.77e-09,586000000.0,112.0,15
244.0,25.54540958404,60,0.036,7.77e-09,586000000.0,112.0,15
245.0,25.56076774596,60,0.036,7.77e-09,586000000.0,112.0,15
246.0,25.57612590788,60,0.036,7.77e-09,586000000.0,112.0,15
247.0,25.5914840698,60,0.036,7.77e-09,586000000.0,112.0,15
248.0,25.60677413938,60,0.036,7.77e-09,586000000.0,112.0,15
249.0,25.62206420896,60,0.036,7.77e-09,586000000.0,112.0,15
250.0,25.63735427854,60,0.036,7.77e-09,586000000.0,112.0,15
251.0,25.65264434812,60,0.036,7.77e-09,586000000.0,112.0,15
252.0,25.6679344177,60,0.036,7.77e-09,586000000.0,112.0,15
253.0,25.68322448728,60,0.036,7.77e-09,586000000.0,112.0,15
254.0,25.69851455686,60,0.036,7.77e-09,586000000.0,112.0,15
255.0,25.71380462644,60,0.036,7.77e-09,586000000.0,112.0,15
256.0,25.72909469602,60,0.036,7.77e-09,586000000.0,112.0,15
257.0,25.7443847656,60,0.036,7.77e-09,586000000.0,112.0,15
258.0,25.75960674284,60,0.036,7.77e-09,586000000.0,112.0,15
259.0,25.77482872008,60,0.036,7.77e-09,586000000.0,112.0,15
260.0,25.79005069732,60,0.036,7.77e-09,586000000.0,112.0,15
261.0,25.80527267456,60,0.036,7.77e-09,586000000.0,112.0,15
262.0,25.8204946518,60,0.036,7.77e-09,586000000.0,112.0,15
263.0,25.83571662904,60,0.036,7.77e-09,586000000.0,112.0,15
264.0,25.85093860628,60,0.036,7.77e-09,586000000.0,112.0,15
265.0,25.86616058352,60,0.036,7.77e-09,586000000.0,112.0,15
266.0,25.88138256076,60,0.036,7.77e-09,586000000.0,112.0,15
267.0,25.896604538,60,0.036,7.77e-09,586000000.0,112.0,15
268.0,25.91175899509,60,0.036,7.77e-09,586000000.0,112.0,15
269.0,25.92691345218,60,0.036,7.77e-09,586000000.0,112.0,15
270.0,25.94206790927,60,0.036,7.77e-09,586000000.0,112.0,15
271.0,25.95722236636,60,0.036,7.77e-09,586000000.0,112.0,15
272.0,25.97237682345,60,0.036,7.77e-09,586000000.0,112.0,15
273.0,25.98753128054,60,0.036,7.77e-09,586000000.0,112.0,15
274.0,26.00268573763,60,0.036,7.77e-09,586000000.0,112.0,15
275.0,26.01784019472,60,0.036,7.77e-09,586000000.0,112.0,15
276.0,26.03299465181,60,0.036,7.77e-09,586000000.0,112.0,15
277.0,26.0481491089,60,0.036,7.77e-09,586000000.0,112.0,15
278.0,26.06323604585,60,0.036,7.77e-09,586000000.0,112.0,15
279.0,26.0783229828,60,0.036,7.77e-09,586000000.0,112.0,15
280.0,26.09340991975,60,0.036,7.77e-09,586000000.0,112.0,15
281.0,26.1084968567,60,0.036,7.77e-09,586000000.0,112.0,15
282.0,26.12358379365,60,0.036,7.77e-09,586000000.0,112.0,15
283.0,26.1386707306,60,0.036,7.77e-09,586000000.0,112.0,15
284.0,26.15375766755,60,0.036,7.77e-09,586000000.0,112.0,15
285.0,26.1688446045,60,0.036,7.77e-09,586000000.0,112.0,15
286.0,26.18393154145,60,0.036,7.77e-09,586000000.0,112.0,15
287.0,26.1990184784,60,0.036,7.77e-09,586000000.0,112.0,15
288.0,26.21403846741,60,0.036,7.77e-09,586000000.0,112.0,15
289.0,26.22905845642,60,0.036,7.77e-09,586000000.0,112.0,15
290.0,26.24407844543,60,0.036,7.77e-09,586000000.0,112.0,15
291.0,26.25909843444,60,0.036,7.77e-09,586000000.0,112.0,15
292.0,26.27411842345,60,0.036,7.77e-09,586000000.0,112.0,15
293.0,26.28913841246,60,0.036,7.77e-09,586000000.0,112.0,15
294.0,26.30415840147,60,0.036,7.77e-09,586000000.0,112.0,15
295.0,26.31917839048,60,0.036,7.77e-09,586000000.0,112.0,15
296.0,26.33419837949,60,0.036,7.77e-09,586000000.0,112.0,15
297.0,26.3492183685,60,0.036,7.77e-09,586000000.0,112.0,15
298.0,26.36417160031,60,0.036,7.77e-09,586000000.0,112.0,15
299.0,26.37912483212,60,0.036,7.77e-09,586000000.0,112.0,15
300.0,26.39407806393,60,0.036,7.77e-09,586000000.0,112.0,15
301.0,26.40903129574,60,0.036,7.77e-09,586000000.0,112.0,15
302.0,26.42398452755,60,0.036,7.77e-09,586000000.0,112.0,15
303.0,26.43893775936,60,0.036,7.77e-09,586000000.0,112.0,15
304.0,26.45389099117,60,0.036,7.77e-09,586000000.0,112.0,15
305.0,26.46884422298,60,0.036,7.77e-09,586000000.0,112.0,15
306.0,26.48379745479,60,0.036,7.77e-09,586000000.0,112.0,15
307.0,26.4987506866,60,0.036,7.77e-09,586000000.0,112.0,15
308.0,26.51363754268,60,0.036,7.77e-09,586000000.0,112.0,15
309.0,26.52852439876,60,0.036,7.77e-09,586000000.0,112.0,15
310.0,26.54341125484,60,0.036,7.77e-09,586000000.0,112.0,15
311.0,26.55829811092,60,0.036,7.77e-09,586000000.0,112.0,15
312.0,26.573184967,60,0.036,7.77e-09,586000000.0,112.0,15
313.0,26.58807182308,60,0.036,7.77e-09,586000000.0,112.0,15
314.0,26.60295867916,60,0.036,7.77e-09,586000000.0,112.0,15
315.0,26.61784553524,60,0.036,7.77e-09,586000000.0,112.0,15
316.0,26.63273239132,60,0.036,7.77e-09,586000000.0,112.0,15
317.0,26.6476192474,60,0.036,7.77e-09,586000000.0,112.0,15
318.0,26.66243991849,60,0.036,7.77e-09,586000000.0,112.0,15
319.0,26.67726058958,60,0.036,7.77e-09,586000000.0,112.0,15
320.0,26.69208126067,60,0.036,7.77e-09,586000000.0,112.0,15
321.0,26.70690193176,60,0.036,7.77e-09,586000000.0,112.0,15
322.0,26.72172260285,60,0.036,7.77e-09,586000000.0,112.0,15
323.0,26.73654327394,60,0.036,7.77e-09,586000000.0,112.0,15
324.0,26.75136394503,60,0.036,7.77e-09,586000000.0,112.0,15
325.0,26.76618461612,60,0.036,7.77e-09,586000000.0,112.0,15
326.0,26.78100528721,60,0.036,7.77e-09,586000000.0,112.0,15
327.0,26.7958259583,60,0.036,7.77e-09,586000000.0,112.0,15
328.0,26.81058063511,60,0.036,7.77e-09,586000000.0,112.0,15
329.0,26.82533531192,60,0.036,7.77e-09,586000000.0,112.0,15
330.0,26.84008998873,60,0.036,7.77e-09,586000000.0,112.0,15
331.0,26.85484466554,60,0.036,7.77e-09,586000000.0,112.0,15
