time,T_int,T_ext_1,Film_Coef,Density,Specific_Heat,Thermal_Conductivity,Radius
1.0,21.9990158081,22.88,0.036,2.71e-09,771000000.0,225.0,25
2.0,21.9970970154,23.76,0.036,2.71e-09,771000000.0,225.0,25
3.0,21.9941158295,24.64,0.036,2.71e-09,771000000.0,225.0,25
4.0,21.9896230698,25.52,0.036,2.71e-09,771000000.0,225.0,25
5.0,21.9851303101,26.4,0.036,2.71e-09,771000000.0,225.0,25
6.0,21.980259418525,27.28,0.036,2.71e-09,771000000.0,225.0,25
7.0,21.97538852695,28.16,0.036,2.71e-09,771000000.0,225.0,25
8.0,21.970517635375,29.04,0.036,2.71e-09,771000000.0,225.0,25
9.0,21.9656467438,29.92,0.036,2.71e-09,771000000.0,225.0,25
10.0,21.9638118744125,30.8,0.036,2.71e-09,771000000.0,225.0,25
11.0,21.961977005025,31.68,0.036,2.71e-09,771000000.0,225.0,25
12.0,21.9601421356375,32.56,0.036,2.71e-09,771000000.0,225.0,25
13.0,21.95830726625,33.44,0.036,2.71e-09,771000000.0,225.0,25
14.0,21.9564723968625,34.32,0.036,2.71e-09,771000000.0,225.0,25
15.0,21.954637527475,35.2,0.036,2.71e-09,771000000.0,225.0,25
16.0,21.9528026580875,36.08,0.036,2.71e-09,771000000.0,225.0,25
17.0,21.9509677887,36.96,0.036,2.71e-09,771000000.0,225.0,25
18.0,21.9544588089,37.84,0.036,2.71e-09,771000000.0,225.0,25
19.0,21.9579498291,38.72,0.036,2.71e-09,771000000.0,225.0,25
20.0,21.9614408493,39.6,0.036,2.71e-09,771000000.0,225.0,25
21.0,21.9649318695,40.48,0.036,2.71e-09,771000000.0,225.0,25
22.0,21.9684228897,41.36,0.036,2.71e-09,771000000.0,225.0,25
23.0,21.9719139099,42.24,0.036,2.71e-09,771000000.0,225.0,25
24.0,21.9754049301,43.12,0.036,2.71e-09,771000000.0,225.0,25
25.0,21.9788959503,44.0,0.036,2.71e-09,771000000.0,225.0,25
26.0,21.9823869705,44.88,0.036,2.71e-09,771000000.0,225.0,25
27.0,21.9858779907,45.76,0.036,2.71e-09,771000000.0,225.0,25
28.0,21.99508514402,46.64,0.036,2.71e-09,771000000.0,225.0,25
29.0,22.00429229734,47.52,0.036,2.71e-09,771000000.0,225.0,25
30.0,22.01349945066,48.4,0.036,2.71e-09,771000000.0,225.0,25
31.0,22.02270660398,49.28,0.036,2.71e-09,771000000.0,225.0,25
32.0,22.0319137573,50.16,0.036,2.71e-09,771000000.0,225.0,25
33.0,22.04112091062,51.04,0.036,2.71e-09,771000000.0,225.0,25
34.0,22.05032806394,51.92,0.036,2.71e-09,771000000.0,225.0,25
35.0,22.05953521726,52.8,0.036,2.71e-09,771000000.0,225.0,25
36.0,22.06874237058,53.68,0.036,2.71e-09,771000000.0,225.0,25
37.0,22.0779495239,54.56,0.036,2.71e-09,771000000.0,225.0,25
38.0,22.09296932218,55.44,0.036,2.71e-09,771000000.0,225.0,25
39.0,22.10798912046,56.32,0.036,2.71e-09,771000000.0,225.0,25
40.0,22.12300891874,57.2,0.036,2.71e-09,771000000.0,225.0,25
41.0,22.13802871702,58.08,0.036,2.71e-09,771000000.0,225.0,25
42.0,22.1530485153,58.96,0.036,2.71e-09,771000000.0,225.0,25
43.0,22.16806831358,59.84,0.036,2.71e-09,771000000.0,225.0,25
44.0,22.18308811186,60.72,0.036,2.71e-09,771000000.0,225.0,25
45.0,22.19810791014,61.6,0.036,2.71e-09,771000000.0,225.0,25
46.0,22.21312770842,62.48,0.036,2.71e-09,771000000.0,225.0,25
47.0,22.2281475067,63.36,0.036,2.71e-09,771000000.0,225.0,25
48.0,22.24604816436,64.24,0.036,2.71e-09,771000000.0,225.0,25
49.0,22.26394882202,65.12,0.036,2.71e-09,771000000.0,225.0,25
50.0,22.28184947968,66.0,0.036,2.71e-09,771000000.0,225.0,25
51.0,22.29975013734,62.94,0.036,2.71e-09,771000000.0,225.0,25
52.0,22.317650795,62.88,0.036,2.71e-09,771000000.0,225.0,25
53.0,22.33555145266,62.82,0.036,2.71e-09,771000000.0,225.0,25
54.0,22.35345211032,62.76,0.036,2.71e-09,771000000.0,225.0,25
55.0,22.37135276798,62.7,0.036,2.71e-09,771000000.0,225.0,25
56.0,22.38925342564,62.64,0.036,2.71e-09,771000000.0,225.0,25
57.0,22.4071540833,62.58,0.036,2.71e-09,771000000.0,225.0,25
58.0,22.42556838994,62.52,0.036,2.71e-09,771000000.0,225.0,25
59.0,22.44398269658,62.46,0.036,2.71e-09,771000000.0,225.0,25
60.0,22.46239700322,62.4,0.036,2.71e-09,771000000.0,225.0,25
61.0,22.48081130986,62.34,0.036,2.71e-09,771000000.0,225.0,25
62.0,22.4992256165,62.28,0.036,2.71e-09,771000000.0,225.0,25
63.0,22.51763992314,62.22,0.036,2.71e-09,771000000.0,225.0,25
64.0,22.53605422978,62.16,0.036,2.71e-09,771000000.0,225.0,25
65.0,22.55446853642,62.1,0.036,2.71e-09,771000000.0,225.0,25
66.0,22.57288284306,62.04,0.036,2.71e-09,771000000.0,225.0,25
67.0,22.5912971497,61.98,0.036,2.71e-09,771000000.0,225.0,25
68.0,22.60942859653,61.92,0.036,2.71e-09,771000000.0,225.0,25
69.0,22.62756004336,61.86,0.036,2.71e-09,771000000.0,225.0,25
70.0,22.64569149019,61.8,0.036,2.71e-09,771000000.0,225.0,25
71.0,22.66382293702,61.74,0.036,2.71e-09,771000000.0,225.0,25
72.0,22.68195438385,61.68,0.036,2.71e-09,771000000.0,225.0,25
73.0,22.70008583068,61.62,0.036,2.71e-09,771000000.0,225.0,25
74.0,22.71821727751,61.56,0.036,2.71e-09,771000000.0,225.0,25
75.0,22.73634872434,61.5,0.036,2.71e-09,771000000.0,225.0,25
76.0,22.75448017117,61.44,0.036,2.71e-09,771000000.0,225.0,25
77.0,22.772611618,61.38,0.036,2.71e-09,771000000.0,225.0,25
78.0,22.7902313232,61.32,0.036,2.71e-09,771000000.0,225.0,25
79.0,22.8078510284,61.26,0.036,2.71e-09,771000000.0,225.0,25
80.0,22.8254707336,61.2,0.036,2.71e-09,771000000.0,225.0,25
81.0,22.8430904388,61.14,0.036,2.71e-09,771000000.0,225.0,25
82.0,22.860710144,61.08,0.036,2.71e-09,771000000.0,225.0,25
83.0,22.8783298492,61.02,0.036,2.71e-09,771000000.0,225.0,25
84.0,22.8959495544,60.96,0.036,2.71e-09,771000000.0,225.0,25
85.0,22.9135692596,60.9,0.036,2.71e-09,771000000.0,225.0,25
86.0,22.9311889648,60.84,0.036,2.71e-09,771000000.0,225.0,25
87.0,22.94880867,60.78,0.036,2.71e-09,771000000.0,225.0,25
88.0,22.96585140224,60.72,0.036,2.71e-09,771000000.0,225.0,25
89.0,22.98289413448,60.66,0.036,2.71e-09,771000000.0,225.0,25
90.0,22.99993686672,60.6,0.036,2.71e-09,771000000.0,225.0,25
91.0,23.01697959896,60.54,0.036,2.71e-09,771000000.0,225.0,25
92.0,23.0340223312,60.48,0.036,2.71e-09,771000000.0,225.0,25
93.0,23.05106506344,60.42,0.036,2.71e-09,771000000.0,225.0,25
94.0,23.06810779568,60.36,0.036,2.71e-09,771000000.0,225.0,25
95.0,23.08515052792,60.3,0.036,2.71e-09,771000000.0,225.0,25
96.0,23.10219326016,60.24,0.036,2.71e-09,771000000.0,225.0,25
97.0,23.1192359924,60.18,0.036,2.71e-09,771000000.0,225.0,25
98.0,23.13592739102,60.12,0.036,2.71e-09,771000000.0,225.0,25
99.0,23.15261878964,60.06,0.036,2.71e-09,771000000.0,225.0,25
100.0,23.16931018826,60.0,0.036,2.71e-09,771000000.0,225.0,25
101.0,23.18600158688,60,0.036,2.71e-09,771000000.0,225.0,25
102.0,23.2026929855,60,0.036,2.71e-09,771000000.0,225.0,25
103.0,23.21938438412,60,0.036,2.71e-09,771000000.0,225.0,25
104.0,23.23607578274,60,0.036,2.71e-09,771000000.0,225.0,25
105.0,23.25276718136,60,0.036,2.71e-09,771000000.0,225.0,25
106.0,23.26945857998,60,0.036,2.71e-09,771000000.0,225.0,25
107.0,23.2861499786,60,0.036,2.71e-09,771000000.0,225.0,25
108.0,23.30268020626,60,0.036,2.71e-09,771000000.0,225.0,25
109.0,23.31921043392,60,0.036,2.71e-09,771000000.0,225.0,25
110.0,23.33574066158,60,0.036,2.71e-09,771000000.0,225.0,25
111.0,23.35227088924,60,0.036,2.71e-09,771000000.0,225.0,25
112.0,23.3688011169,60,0.036,2.71e-09,771000000.0,225.0,25
113.0,23.38533134456,60,0.036,2.71e-09,771000000.0,225.0,25
114.0,23.40186157222,60,0.036,2.71e-09,771000000.0,225.0,25
115.0,23.41839179988,60,0.036,2.71e-09,771000000.0,225.0,25
116.0,23.43492202754,60,0.036,2.71e-09,771000000.0,225.0,25
117.0,23.4514522552,60,0.036,2.71e-09,771000000.0,225.0,25
118.0,23.46788482662,60,0.036,2.71e-09,771000000.0,225.0,25
119.0,23.48431739804,60,0.036,2.71e-09,771000000.0,225.0,25
120.0,23.50074996946,60,0.036,2.71e-09,771000000.0,225.0,25
121.0,23.51718254088,60,0.036,2.71e-09,771000000.0,225.0,25
122.0,23.5336151123,60,0.036,2.71e-09,771000000.0,225.0,25
123.0,23.55004768372,60,0.036,2.71e-09,771000000.0,225.0,25
124.0,23.56648025514,60,0.036,2.71e-09,771000000.0,225.0,25
125.0,23.58291282656,60,0.036,2.71e-09,771000000.0,225.0,25
126.0,23.59934539798,60,0.036,2.71e-09,771000000.0,225.0,25
127.0,23.6157779694,60,0.036,2.71e-09,771000000.0,225.0,25
128.0,23.6321306229,60,0.036,2.71e-09,771000000.0,225.0,25
129.0,23.6484832764,60,0.036,2.71e-09,771000000.0,225.0,25
130.0,23.6648359299,60,0.036,2.71e-09,771000000.0,225.0,25
131.0,23.6811885834,60,0.036,2.71e-09,771000000.0,225.0,25
132.0,23.6975412369,60,0.036,2.71e-09,771000000.0,225.0,25
133.0,23.7138938904,60,0.036,2.71e-09,771000000.0,225.0,25
134.0,23.7302465439,60,0.036,2.71e-09,771000000.0,225.0,25
135.0,23.7465991974,60,0.036,2.71e-09,771000000.0,225.0,25
136.0,23.7629518509,60,0.036,2.71e-09,771000000.0,225.0,25
137.0,23.7793045044,60,0.036,2.71e-09,771000000.0,225.0,25
138.0,23.7955821991,60,0.036,2.71e-09,771000000.0,225.0,25
139.0,23.8118598938,60,0.036,2.71e-09,771000000.0,225.0,25
140.0,23.8281375885,60,0.036,2.71e-09,771000000.0,225.0,25
141.0,23.8444152832,60,0.036,2.71e-09,771000000.0,225.0,25
142.0,23.8606929779,60,0.036,2.71e-09,771000000.0,225.0,25
143.0,23.8769706726,60,0.036,2.71e-09,771000000.0,225.0,25
144.0,23.8932483673,60,0.036,2.71e-09,771000000.0,225.0,25
145.0,23.909526062,60,0.036,2.71e-09,771000000.0,225.0,25
146.0,23.9258037567,60,0.036,2.71e-09,771000000.0,225.0,25
147.0,23.9420814514,60,0.036,2.71e-09,771000000.0,225.0,25
148.0,23.95828571318,60,0.036,2.71e-09,771000000.0,225.0,25
149.0,23.97448997496,60,0.036,2.71e-09,771000000.0,225.0,25
150.0,23.99069423674,60,0.036,2.71e-09,771000000.0,225.0,25
151.0,24.00689849852,60,0.036,2.71e-09,771000000.0,225.0,25
152.0,24.0231027603,60,0.036,2.71e-09,771000000.0,225.0,25
153.0,24.03930702208,60,0.036,2.71e-09,771000000.0,225.0,25
154.0,24.05551128386,60,0.036,2.71e-09,771000000.0,225.0,25
155.0,24.07171554564,60,0.036,2.71e-09,771000000.0,225.0,25
156.0,24.08791980742,60,0.036,2.71e-09,771000000.0,225.0,25
157.0,24.1041240692,60,0.036,2.71e-09,771000000.0,225.0,25
158.0,24.12025547026,60,0.036,2.71e-09,771000000.0,225.0,25
159.0,24.13638687132,60,0.036,2.71e-09,771000000.0,225.0,25
160.0,24.15251827238,60,0.036,2.71e-09,771000000.0,225.0,25
161.0,24.16864967344,60,0.036,2.71e-09,771000000.0,225.0,25
162.0,24.1847810745,60,0.036,2.71e-09,771000000.0,225.0,25
163.0,24.20091247556,60,0.036,2.71e-09,771000000.0,225.0,25
164.0,24.21704387662,60,0.036,2.71e-09,771000000.0,225.0,25
165.0,24.23317527768,60,0.036,2.71e-09,771000000.0,225.0,25
166.0,24.24930667874,60,0.036,2.71e-09,771000000.0,225.0,25
167.0,24.2654380798,60,0.036,2.71e-09,771000000.0,225.0,25
168.0,24.28149700162,60,0.036,2.71e-09,771000000.0,225.0,25
169.0,24.29755592344,60,0.036,2.71e-09,771000000.0,225.0,25
170.0,24.31361484526,60,0.036,2.71e-09,771000000.0,225.0,25
171.0,24.32967376708,60,0.036,2.71e-09,771000000.0,225.0,25
172.0,24.3457326889,60,0.036,2.71e-09,771000000.0,225.0,25
173.0,24.36179161072,60,0.036,2.71e-09,771000000.0,225.0,25
174.0,24.37785053254,60,0.036,2.71e-09,771000000.0,225.0,25
175.0,24.39390945436,60,0.036,2.71e-09,771000000.0,225.0,25
176.0,24.40996837618,60,0.036,2.71e-09,771000000.0,225.0,25
177.0,24.426027298,60,0.036,2.71e-09,771000000.0,225.0,25
178.0,24.44201412203,60,0.036,2.71e-09,771000000.0,225.0,25
179.0,24.45800094606,60,0.036,2.71e-09,771000000.0,225.0,25
180.0,24.47398777009,60,0.036,2.71e-09,771000000.0,225.0,25
181.0,24.48997459412,60,0.036,2.71e-09,771000000.0,225.0,25
182.0,24.50596141815,60,0.036,2.71e-09,771000000.0,225.0,25
183.0,24.52194824218,60,0.036,2.71e-09,771000000.0,225.0,25
184.0,24.53793506621,60,0.036,2.71e-09,771000000.0,225.0,25
185.0,24.55392189024,60,0.036,2.71e-09,771000000.0,225.0,25
186.0,24.56990871427,60,0.036,2.71e-09,771000000.0,225.0,25
187.0,24.5858955383,60,0.036,2.71e-09,771000000.0,225.0,25
188.0,24.60181064603,60,0.036,2.71e-09,771000000.0,225.0,25
189.0,24.61772575376,60,0.036,2.71e-09,771000000.0,225.0,25
190.0,24.63364086149,60,0.036,2.71e-09,771000000.0,225.0,25
191.0,24.64955596922,60,0.036,2.71e-09,771000000.0,225.0,25
192.0,24.66547107695,60,0.036,2.71e-09,771000000.0,225.0,25
193.0,24.68138618468,60,0.036,2.71e-09,771000000.0,225.0,25
194.0,24.69730129241,60,0.036,2.71e-09,771000000.0,225.0,25
195.0,24.71321640014,60,0.036,2.71e-09,771000000.0,225.0,25
196.0,24.72913150787,60,0.036,2.71e-09,771000000.0,225.0,25
197.0,24.7450466156,60,0.036,2.71e-09,771000000.0,225.0,25
198.0,24.76089019775,60,0.036,2.71e-09,771000000.0,225.0,25
199.0,24.7767337799,60,0.036,2.71e-09,771000000.0,225.0,25
200.0,24.79257736205,60,0.036,2.71e-09,771000000.0,225.0,25
201.0,24.8084209442,60,0.036,2.71e-09,771000000.0,225.0,25
202.0,24.82426452635,60,0.036,2.71e-09,771000000.0,225.0,25
203.0,24.8401081085,60,0.036,2.71e-09,771000000.0,225.0,25
204.0,24.85595169065,60,0.036,2.71e-09,771000000.0,225.0,25
205.0,24.8717952728,60,0.036,2.71e-09,771000000.0,225.0,25
206.0,24.88763885495,60,0.036,2.71e-09,771000000.0,225.0,25
207.0,24.9034824371,60,0.036,2.71e-09,771000000.0,225.0,25
208.0,24.91925468442,60,0.036,2.71e-09,771000000.0,225.0,25
209.0,24.93502693174,60,0.036,2.71e-09,771000000.0,225.0,25
210.0,24.95079917906,60,0.036,2.71e-09,771000000.0,225.0,25
211.0,24.96657142638,60,0.036,2.71e-09,771000000.0,225.0,25
212.0,24.9823436737,60,0.036,2.71e-09,771000000.0,225.0,25
213.0,24.99811592102,60,0.036,2.71e-09,771000000.0,225.0,25
214.0,25.01388816834,60,0.036,2.71e-09,771000000.0,225.0,25
215.0,25.02966041566,60,0.036,2.71e-09,771000000.0,225.0,25
216.0,25.04543266298,60,0.036,2.71e-09,771000000.0,225.0,25
217.0,25.0612049103,60,0.036,2.71e-09,771000000.0,225.0,25
218.0,25.07690658571,60,0.036,2.71e-09,771000000.0,225.0,25
219.0,25.09260826112,60,0.036,2.71e-09,771000000.0,225.0,25
220.0,25.10830993653,60,0.036,2.71e-09,771000000.0,225.0,25
221.0,25.12401161194,60,0.036,2.71e-09,771000000.0,225.0,25
222.0,25.13971328735,60,0.036,2.71e-09,771000000.0,225.0,25
223.0,25.15541496276,60,0.036,2.71e-09,771000000.0,225.0,25
224.0,25.17111663817,60,0.036,2.71e-09,771000000.0,225.0,25
225.0,25.18681831358,60,0.036,2.71e-09,771000000.0,225.0,25
226.0,25.20251998899,60,0.036,2.71e-09,771000000.0,225.0,25
227.0,25.2182216644,60,0.036,2.71e-09,771000000.0,225.0,25
228.0,25.23385257718,60,0.036,2.71e-09,771000000.0,225.0,25
229.0,25.24948348996,60,0.036,2.71e-09,771000000.0,225.0,25
230.0,25.26511440274,60,0.036,2.71e-09,771000000.0,225.0,25
231.0,25.28074531552,60,0.036,2.71e-09,771000000.0,225.0,25
232.0,25.2963762283,60,0.036,2.71e-09,771000000.0,225.0,25
233.0,25.31200714108,60,0.036,2.71e-09,771000000.0,225.0,25
234.0,25.32763805386,60,0.036,2.71e-09,771000000.0,225.0,25
235.0,25.34326896664,60,0.036,2.71e-09,771000000.0,225.0,25
236.0,25.35889987942,60,0.036,2.71e-09,771000000.0,225.0,25
237.0,25.3745307922,60,0.036,2.71e-09,771000000.0,225.0,25
238.0,25.39009151455,60,0.036,2.71e-09,771000000.0,225.0,25
239.0,25.4056522369,60,0.036,2.71e-09,771000000.0,225.0,25
240.0,25.42121295925,60,0.036,2.71e-09,771000000.0,225.0,25
241.0,25.4367736816,60,0.036,2.71e-09,771000000.0,225.0,25
242.0,25.45233440395,60,0.036,2.71e-09,771000000.0,225.0,25
243.0,25.4678951263,60,0.036,2.71e-09,771000000.0,225.0,25
244.0,25.48345584865,60,0.036,2.71e-09,771000000.0,225.0,25
245.0,25.499016571,60,0.036,2.71e-09,771000000.0,225.0,25
246.0,25.51457729335,60,0.036,2.71e-09,771000000.0,225.0,25
247.0,25.5301380157,60,0.036,2.71e-09,771000000.0,225.0,25
248.0,25.54562873836,60,0.036,2.71e-09,771000000.0,225.0,25
249.0,25.56111946102,60,0.036,2.71e-09,771000000.0,225.0,25
250.0,25.57661018368,60,0.036,2.71e-09,771000000.0,225.0,25
251.0,25.59210090634,60,0.036,2.71e-09,771000000.0,225.0,25
252.0,25.607591629,60,0.036,2.71e-09,771000000.0,225.0,25
253.0,25.62308235166,60,0.036,2.71e-09,771000000.0,225.0,25
254.0,25.63857307432,60,0.036,2.71e-09,771000000.0,225.0,25
255.0,25.65406379698,60,0.036,2.71e-09,771000000.0,225.0,25
256.0,25.66955451964,60,0.036,2.71e-09,771000000.0,225.0,25
257.0,25.6850452423,60,0.036,2.71e-09,771000000.0,225.0,25
258.0,25.70046634673,60,0.036,2.71e-09,771000000.0,225.0,25
259.0,25.71588745116,60,0.036,2.71e-09,771000000.0,225.0,25
260.0,25.73130855559,60,0.036,2.71e-09,771000000.0,225.0,25
261.0,25.74672966002,60,0.036,2.71e-09,771000000.0,225.0,25
262.0,25.76215076445,60,0.036,2.71e-09,771000000.0,225.0,25
263.0,25.77757186888,60,0.036,2.71e-09,771000000.0,225.0,25
264.0,25.79299297331,60,0.036,2.71e-09,771000000.0,225.0,25
265.0,25.80841407774,60,0.036,2.71e-09,771000000.0,225.0,25
266.0,25.82383518217,60,0.036,2.71e-09,771000000.0,225.0,25
267.0,25.8392562866,60,0.036,2.71e-09,771000000.0,225.0,25
268.0,25.85460815428,60,0.036,2.71e-09,771000000.0,225.0,25
269.0,25.86996002196,60,0.036,2.71e-09,771000000.0,225.0,25
270.0,25.88531188964,60,0.036,2.71e-09,771000000.0,225.0,25
271.0,25.90066375732,60,0.036,2.71e-09,771000000.0,225.0,25
272.0,25.916015625,60,0.036,2.71e-09,771000000.0,225.0,25
273.0,25.93136749268,60,0.036,2.71e-09,771000000.0,225.0,25
274.0,25.94671936036,60,0.036,2.71e-09,771000000.0,225.0,25
275.0,25.96207122804,60,0.036,2.71e-09,771000000.0,225.0,25
276.0,25.97742309572,60,0.036,2.71e-09,771000000.0,225.0,25
277.0,25.9927749634,60,0.036,2.71e-09,771000000.0,225.0,25
278.0,26.00805797579,60,0.036,2.71e-09,771000000.0,225.0,25
279.0,26.02334098818,60,0.036,2.71e-09,771000000.0,225.0,25
280.0,26.03862400057,60,0.036,2.71e-09,771000000.0,225.0,25
281.0,26.05390701296,60,0.036,2.71e-09,771000000.0,225.0,25
282.0,26.06919002535,60,0.036,2.71e-09,771000000.0,225.0,25
283.0,26.08447303774,60,0.036,2.71e-09,771000000.0,225.0,25
284.0,26.09975605013,60,0.036,2.71e-09,771000000.0,225.0,25
285.0,26.11503906252,60,0.036,2.71e-09,771000000.0,225.0,25
286.0,26.13032207491,60,0.036,2.71e-09,771000000.0,225.0,25
287.0,26.1456050873,60,0.036,2.71e-09,771000000.0,225.0,25
288.0,26.1608192444,60,0.036,2.71e-09,771000000.0,225.0,25
289.0,26.1760334015,60,0.036,2.71e-09,771000000.0,225.0,25
290.0,26.1912475586,60,0.036,2.71e-09,771000000.0,225.0,25
291.0,26.2064617157,60,0.036,2.71e-09,771000000.0,225.0,25
292.0,26.2216758728,60,0.036,2.71e-09,771000000.0,225.0,25
293.0,26.2368900299,60,0.036,2.71e-09,771000000.0,225.0,25
294.0,26.252104187,60,0.036,2.71e-09,771000000.0,225.0,25
295.0,26.2673183441,60,0.036,2.71e-09,771000000.0,225.0,25
296.0,26.2825325012,60,0.036,2.71e-09,771000000.0,225.0,25
297.0,26.2977466583,60,0.036,2.71e-09,771000000.0,225.0,25
298.0,26.31289253233,60,0.036,2.71e-09,771000000.0,225.0,25
299.0,26.32803840636,60,0.036,2.71e-09,771000000.0,225.0,25
300.0,26.34318428039,60,0.036,2.71e-09,771000000.0,225.0,25
301.0,26.35833015442,60,0.036,2.71e-09,771000000.0,225.0,25
302.0,26.37347602845,60,0.036,2.71e-09,771000000.0,225.0,25
303.0,26.38862190248,60,0.036,2.71e-09,771000000.0,225.0,25
304.0,26.40376777651,60,0.036,2.71e-09,771000000.0,225.0,25
305.0,26.41891365054,60,0.036,2.71e-09,771000000.0,225.0,25
306.0,26.43405952457,60,0.036,2.71e-09,771000000.0,225.0,25
307.0,26.4492053986,60,0.036,2.71e-09,771000000.0,225.0,25
308.0,26.46428318027,60,0.036,2.71e-09,771000000.0,225.0,25
309.0,26.47936096194,60,0.036,2.71e-09,771000000.0,225.0,25
310.0,26.49443874361,60,0.036,2.71e-09,771000000.0,225.0,25
311.0,26.50951652528,60,0.036,2.71e-09,771000000.0,225.0,25
312.0,26.52459430695,60,0.036,2.71e-09,771000000.0,225.0,25
313.0,26.53967208862,60,0.036,2.71e-09,771000000.0,225.0,25
314.0,26.55474987029,60,0.036,2.71e-09,771000000.0,225.0,25
315.0,26.56982765196,60,0.036,2.71e-09,771000000.0,225.0,25
316.0,26.58490543363,60,0.036,2.71e-09,771000000.0,225.0,25
317.0,26.5999832153,60,0.036,2.71e-09,771000000.0,225.0,25
318.0,26.61499309537,60,0.036,2.71e-09,771000000.0,225.0,25
319.0,26.63000297544,60,0.036,2.71e-09,771000000.0,225.0,25
320.0,26.64501285551,60,0.036,2.71e-09,771000000.0,225.0,25
321.0,26.66002273558,60,0.036,2.71e-09,771000000.0,225.0,25
322.0,26.67503261565,60,0.036,2.71e-09,771000000.0,225.0,25
323.0,26.69004249572,60,0.036,2.71e-09,771000000.0,225.0,25
324.0,26.70505237579,60,0.036,2.71e-09,771000000.0,225.0,25
325.0,26.72006225586,60,0.036,2.71e-09,771000000.0,225.0,25
326.0,26.73507213593,60,0.036,2.71e-09,771000000.0,225.0,25
327.0,26.750082016,60,0.036,2.71e-09,771000000.0,225.0,25
328.0,26.76502456666,60,0.036,2.71e-09,771000000.0,225.0,25
329.0,26.77996711732,60,0.036,2.71e-09,771000000.0,225.0,25
330.0,26.79490966798,60,0.036,2.71e-09,771000000.0,225.0,25
