time,T_int,T_ext_1,Film_Coef,Density,Specific_Heat,Thermal_Conductivity,Radius
1.0,21.9876842499,22.88,0.036,7.87e-09,686000000.0,152.0,15
2.0,21.9778652191,23.76,0.036,7.87e-09,686000000.0,152.0,15
3.0,21.9696903229,24.64,0.036,7.87e-09,686000000.0,152.0,15
4.0,21.9635152817,25.52,0.036,7.87e-09,686000000.0,152.0,15
5.0,21.9573402405,26.4,0.036,7.87e-09,686000000.0,152.0,15
6.0,21.953850746175,27.28,0.036,7.87e-09,686000000.0,152.0,15
7.0,21.95036125185,28.16,0.036,7.87e-09,686000000.0,152.0,15
8.0,21.946871757525,29.04,0.036,7.87e-09,686000000.0,152.0,15
9.0,21.9433822632,29.92,0.036,7.87e-09,686000000.0,152.0,15
10.0,21.944267988225,30.8,0.036,7.87e-09,686000000.0,152.0,15
11.0,21.94515371325,31.68,0.036,7.87e-09,686000000.0,152.0,15
12.0,21.946039438275,32.56,0.036,7.87e-09,686000000.0,152.0,15
13.0,21.9469251633,33.44,0.036,7.87e-09,686000000.0,152.0,15
14.0,21.947810888325,34.32,0.036,7.87e-09,686000000.0,152.0,15
15.0,21.94869661335,35.2,0.036,7.87e-09,686000000.0,152.0,15
16.0,21.949582338375,36.08,0.036,7.87e-09,686000000.0,152.0,15
17.0,21.9504680634,36.96,0.036,7.87e-09,686000000.0,152.0,15
18.0,21.95650177006,37.84,0.036,7.87e-09,686000000.0,152.0,15
19.0,21.96253547672,38.72,0.036,7.87e-09,686000000.0,152.0,15
20.0,21.96856918338,39.6,0.036,7.87e-09,686000000.0,152.0,15
21.0,21.97460289004,40.48,0.036,7.87e-09,686000000.0,152.0,15
22.0,21.9806365967,41.36,0.036,7.87e-09,686000000.0,152.0,15
23.0,21.98667030336,42.24,0.036,7.87e-09,686000000.0,152.0,15
24.0,21.99270401002,43.12,0.036,7.87e-09,686000000.0,152.0,15
25.0,21.99873771668,44.0,0.036,7.87e-09,686000000.0,152.0,15
26.0,22.00477142334,44.88,0.036,7.87e-09,686000000.0,152.0,15
27.0,22.01080513,45.76,0.036,7.87e-09,686000000.0,152.0,15
28.0,22.02191181182,46.64,0.036,7.87e-09,686000000.0,152.0,15
29.0,22.03301849364,47.52,0.036,7.87e-09,686000000.0,152.0,15
30.0,22.04412517546,48.4,0.036,7.87e-09,686000000.0,152.0,15
31.0,22.05523185728,49.28,0.036,7.87e-09,686000000.0,152.0,15
32.0,22.0663385391,50.16,0.036,7.87e-09,686000000.0,152.0,15
33.0,22.07744522092,51.04,0.036,7.87e-09,686000000.0,152.0,15
34.0,22.08855190274,51.92,0.036,7.87e-09,686000000.0,152.0,15
35.0,22.09965858456,52.8,0.036,7.87e-09,686000000.0,152.0,15
36.0,22.11076526638,53.68,0.036,7.87e-09,686000000.0,152.0,15
37.0,22.1218719482,54.56,0.036,7.87e-09,686000000.0,152.0,15
38.0,22.13803043362,55.44,0.036,7.87e-09,686000000.0,152.0,15
39.0,22.15418891904,56.32,0.036,7.87e-09,686000000.0,152.0,15
40.0,22.17034740446,57.2,0.036,7.87e-09,686000000.0,152.0,15
41.0,22.18650588988,58.08,0.036,7.87e-09,686000000.0,152.0,15
42.0,22.2026643753,58.96,0.036,7.87e-09,686000000.0,152.0,15
43.0,22.21882286072,59.84,0.036,7.87e-09,686000000.0,152.0,15
44.0,22.23498134614,60.72,0.036,7.87e-09,686000000.0,152.0,15
45.0,22.25113983156,61.6,0.036,7.87e-09,686000000.0,152.0,15
46.0,22.26729831698,62.48,0.036,7.87e-09,686000000.0,152.0,15
47.0,22.2834568024,63.36,0.036,7.87e-09,686000000.0,152.0,15
48.0,22.30027904513,64.24,0.036,7.87e-09,686000000.0,152.0,15
49.0,22.31710128786,65.12,0.036,7.87e-09,686000000.0,152.0,15
50.0,22.33392353059,66.0,0.036,7.87e-09,686000000.0,152.0,15
51.0,22.35074577332,62.94,0.036,7.87e-09,686000000.0,152.0,15
52.0,22.36756801605,62.88,0.036,7.87e-09,686000000.0,152.0,15
53.0,22.38439025878,62.82,0.036,7.87e-09,686000000.0,152.0,15
54.0,22.40121250151,62.76,0.036,7.87e-09,686000000.0,152.0,15
55.0,22.41803474424,62.7,0.036,7.87e-09,686000000.0,152.0,15
56.0,22.43485698697,62.64,0.036,7.87e-09,686000000.0,152.0,15
57.0,22.4516792297,62.58,0.036,7.87e-09,686000000.0,152.0,15
58.0,22.46770496365,62.52,0.036,7.87e-09,686000000.0,152.0,15
59.0,22.4837306976,62.46,0.036,7.87e-09,686000000.0,152.0,15
60.0,22.49975643155,62.4,0.036,7.87e-09,686000000.0,152.0,15
61.0,22.5157821655,62.34,0.036,7.87e-09,686000000.0,152.0,15
62.0,22.53180789945,62.28,0.036,7.87e-09,686000000.0,152.0,15
63.0,22.5478336334,62.22,0.036,7.87e-09,686000000.0,152.0,15
64.0,22.56385936735,62.16,0.036,7.87e-09,686000000.0,152.0,15
65.0,22.5798851013,62.1,0.036,7.87e-09,686000000.0,152.0,15
66.0,22.59591083525,62.04,0.036,7.87e-09,686000000.0,152.0,15
67.0,22.6119365692,61.98,0.036,7.87e-09,686000000.0,152.0,15
68.0,22.62741317748,61.92,0.036,7.87e-09,686000000.0,152.0,15
69.0,22.64288978576,61.86,0.036,7.87e-09,686000000.0,152.0,15
70.0,22.65836639404,61.8,0.036,7.87e-09,686000000.0,152.0,15
71.0,22.67384300232,61.74,0.036,7.87e-09,686000000.0,152.0,15
72.0,22.6893196106,61.68,0.036,7.87e-09,686000000.0,152.0,15
73.0,22.70479621888,61.62,0.036,7.87e-09,686000000.0,152.0,15
74.0,22.72027282716,61.56,0.036,7.87e-09,686000000.0,152.0,15
75.0,22.73574943544,61.5,0.036,7.87e-09,686000000.0,152.0,15
76.0,22.75122604372,61.44,0.036,7.87e-09,686000000.0,152.0,15
77.0,22.766702652,61.38,0.036,7.87e-09,686000000.0,152.0,15
78.0,22.78166942598,61.32,0.036,7.87e-09,686000000.0,152.0,15
79.0,22.79663619996,61.26,0.036,7.87e-09,686000000.0,152.0,15
80.0,22.81160297394,61.2,0.036,7.87e-09,686000000.0,152.0,15
81.0,22.82656974792,61.14,0.036,7.87e-09,686000000.0,152.0,15
82.0,22.8415365219,61.08,0.036,7.87e-09,686000000.0,152.0,15
83.0,22.85650329588,61.02,0.036,7.87e-09,686000000.0,152.0,15
84.0,22.87147006986,60.96,0.036,7.87e-09,686000000.0,152.0,15
85.0,22.88643684384,60.9,0.036,7.87e-09,686000000.0,152.0,15
86.0,22.90140361782,60.84,0.036,7.87e-09,686000000.0,152.0,15
87.0,22.9163703918,60.78,0.036,7.87e-09,686000000.0,152.0,15
88.0,22.93083038326,60.72,0.036,7.87e-09,686000000.0,152.0,15
89.0,22.94529037472,60.66,0.036,7.87e-09,686000000.0,152.0,15
90.0,22.95975036618,60.6,0.036,7.87e-09,686000000.0,152.0,15
91.0,22.97421035764,60.54,0.036,7.87e-09,686000000.0,152.0,15
92.0,22.9886703491,60.48,0.036,7.87e-09,686000000.0,152.0,15
93.0,23.00313034056,60.42,0.036,7.87e-09,686000000.0,152.0,15
94.0,23.01759033202,60.36,0.036,7.87e-09,686000000.0,152.0,15
95.0,23.03205032348,60.3,0.036,7.87e-09,686000000.0,152.0,15
96.0,23.04651031494,60.24,0.036,7.87e-09,686000000.0,152.0,15
97.0,23.0609703064,60.18,0.036,7.87e-09,686000000.0,152.0,15
98.0,23.07528553009,60.12,0.036,7.87e-09,686000000.0,152.0,15
99.0,23.08960075378,60.06,0.036,7.87e-09,686000000.0,152.0,15
100.0,23.10391597747,60.0,0.036,7.87e-09,686000000.0,152.0,15
101.0,23.11823120116,60,0.036,7.87e-09,686000000.0,152.0,15
102.0,23.13254642485,60,0.036,7.87e-09,686000000.0,152.0,15
103.0,23.14686164854,60,0.036,7.87e-09,686000000.0,152.0,15
104.0,23.16117687223,60,0.036,7.87e-09,686000000.0,152.0,15
105.0,23.17549209592,60,0.036,7.87e-09,686000000.0,152.0,15
106.0,23.18980731961,60,0.036,7.87e-09,686000000.0,152.0,15
107.0,23.2041225433,60,0.036,7.87e-09,686000000.0,152.0,15
108.0,23.21841182706,60,0.036,7.87e-09,686000000.0,152.0,15
109.0,23.23270111082,60,0.036,7.87e-09,686000000.0,152.0,15
110.0,23.24699039458,60,0.036,7.87e-09,686000000.0,152.0,15
111.0,23.26127967834,60,0.036,7.87e-09,686000000.0,152.0,15
112.0,23.2755689621,60,0.036,7.87e-09,686000000.0,152.0,15
113.0,23.28985824586,60,0.036,7.87e-09,686000000.0,152.0,15
114.0,23.30414752962,60,0.036,7.87e-09,686000000.0,152.0,15
115.0,23.31843681338,60,0.036,7.87e-09,686000000.0,152.0,15
116.0,23.33272609714,60,0.036,7.87e-09,686000000.0,152.0,15
117.0,23.3470153809,60,0.036,7.87e-09,686000000.0,152.0,15
118.0,23.36125564579,60,0.036,7.87e-09,686000000.0,152.0,15
119.0,23.37549591068,60,0.036,7.87e-09,686000000.0,152.0,15
120.0,23.38973617557,60,0.036,7.87e-09,686000000.0,152.0,15
121.0,23.40397644046,60,0.036,7.87e-09,686000000.0,152.0,15
122.0,23.41821670535,60,0.036,7.87e-09,686000000.0,152.0,15
123.0,23.43245697024,60,0.036,7.87e-09,686000000.0,152.0,15
124.0,23.44669723513,60,0.036,7.87e-09,686000000.0,152.0,15
125.0,23.46093750002,60,0.036,7.87e-09,686000000.0,152.0,15
126.0,23.47517776491,60,0.036,7.87e-09,686000000.0,152.0,15
127.0,23.4894180298,60,0.036,7.87e-09,686000000.0,152.0,15
128.0,23.50360450746,60,0.036,7.87e-09,686000000.0,152.0,15
129.0,23.51779098512,60,0.036,7.87e-09,686000000.0,152.0,15
130.0,23.53197746278,60,0.036,7.87e-09,686000000.0,152.0,15
131.0,23.54616394044,60,0.036,7.87e-09,686000000.0,152.0,15
132.0,23.5603504181,60,0.036,7.87e-09,686000000.0,152.0,15
133.0,23.57453689576,60,0.036,7.87e-09,686000000.0,152.0,15
134.0,23.58872337342,60,0.036,7.87e-09,686000000.0,152.0,15
135.0,23.60290985108,60,0.036,7.87e-09,686000000.0,152.0,15
136.0,23.61709632874,60,0.036,7.87e-09,686000000.0,152.0,15
137.0,23.6312828064,60,0.036,7.87e-09,686000000.0,152.0,15
138.0,23.64541454316,60,0.036,7.87e-09,686000000.0,152.0,15
139.0,23.65954627992,60,0.036,7.87e-09,686000000.0,152.0,15
140.0,23.67367801668,60,0.036,7.87e-09,686000000.0,152.0,15
141.0,23.68780975344,60,0.036,7.87e-09,686000000.0,152.0,15
142.0,23.7019414902,60,0.036,7.87e-09,686000000.0,152.0,15
143.0,23.71607322696,60,0.036,7.87e-09,686000000.0,152.0,15
144.0,23.73020496372,60,0.036,7.87e-09,686000000.0,152.0,15
145.0,23.74433670048,60,0.036,7.87e-09,686000000.0,152.0,15
146.0,23.75846843724,60,0.036,7.87e-09,686000000.0,152.0,15
147.0,23.772600174,60,0.036,7.87e-09,686000000.0,152.0,15
148.0,23.78667716984,60,0.036,7.87e-09,686000000.0,152.0,15
149.0,23.80075416568,60,0.036,7.87e-09,686000000.0,152.0,15
150.0,23.81483116152,60,0.036,7.87e-09,686000000.0,152.0,15
151.0,23.82890815736,60,0.036,7.87e-09,686000000.0,152.0,15
152.0,23.8429851532,60,0.036,7.87e-09,686000000.0,152.0,15
153.0,23.85706214904,60,0.036,7.87e-09,686000000.0,152.0,15
154.0,23.87113914488,60,0.036,7.87e-09,686000000.0,152.0,15
155.0,23.88521614072,60,0.036,7.87e-09,686000000.0,152.0,15
156.0,23.89929313656,60,0.036,7.87e-09,686000000.0,152.0,15
157.0,23.9133701324,60,0.036,7.87e-09,686000000.0,152.0,15
158.0,23.92739257808,60,0.036,7.87e-09,686000000.0,152.0,15
159.0,23.94141502376,60,0.036,7.87e-09,686000000.0,152.0,15
160.0,23.95543746944,60,0.036,7.87e-09,686000000.0,152.0,15
161.0,23.96945991512,60,0.036,7.87e-09,686000000.0,152.0,15
162.0,23.9834823608,60,0.036,7.87e-09,686000000.0,152.0,15
163.0,23.99750480648,60,0.036,7.87e-09,686000000.0,152.0,15
164.0,24.01152725216,60,0.036,7.87e-09,686000000.0,152.0,15
165.0,24.02554969784,60,0.036,7.87e-09,686000000.0,152.0,15
166.0,24.03957214352,60,0.036,7.87e-09,686000000.0,152.0,15
167.0,24.0535945892,60,0.036,7.87e-09,686000000.0,152.0,15
168.0,24.06756229398,60,0.036,7.87e-09,686000000.0,152.0,15
169.0,24.08152999876,60,0.036,7.87e-09,686000000.0,152.0,15
170.0,24.09549770354,60,0.036,7.87e-09,686000000.0,152.0,15
171.0,24.10946540832,60,0.036,7.87e-09,686000000.0,152.0,15
172.0,24.1234331131,60,0.036,7.87e-09,686000000.0,152.0,15
173.0,24.13740081788,60,0.036,7.87e-09,686000000.0,152.0,15
174.0,24.15136852266,60,0.036,7.87e-09,686000000.0,152.0,15
175.0,24.16533622744,60,0.036,7.87e-09,686000000.0,152.0,15
176.0,24.17930393222,60,0.036,7.87e-09,686000000.0,152.0,15
177.0,24.193271637,60,0.036,7.87e-09,686000000.0,152.0,15
178.0,24.20718517307,60,0.036,7.87e-09,686000000.0,152.0,15
179.0,24.22109870914,60,0.036,7.87e-09,686000000.0,152.0,15
180.0,24.23501224521,60,0.036,7.87e-09,686000000.0,152.0,15
181.0,24.24892578128,60,0.036,7.87e-09,686000000.0,152.0,15
182.0,24.26283931735,60,0.036,7.87e-09,686000000.0,152.0,15
183.0,24.27675285342,60,0.036,7.87e-09,686000000.0,152.0,15
184.0,24.29066638949,60,0.036,7.87e-09,686000000.0,152.0,15
185.0,24.30457992556,60,0.036,7.87e-09,686000000.0,152.0,15
186.0,24.31849346163,60,0.036,7.87e-09,686000000.0,152.0,15
187.0,24.3324069977,60,0.036,7.87e-09,686000000.0,152.0,15
188.0,24.3462665558,60,0.036,7.87e-09,686000000.0,152.0,15
189.0,24.3601261139,60,0.036,7.87e-09,686000000.0,152.0,15
190.0,24.373985672,60,0.036,7.87e-09,686000000.0,152.0,15
191.0,24.3878452301,60,0.036,7.87e-09,686000000.0,152.0,15
192.0,24.4017047882,60,0.036,7.87e-09,686000000.0,152.0,15
193.0,24.4155643463,60,0.036,7.87e-09,686000000.0,152.0,15
194.0,24.4294239044,60,0.036,7.87e-09,686000000.0,152.0,15
195.0,24.4432834625,60,0.036,7.87e-09,686000000.0,152.0,15
196.0,24.4571430206,60,0.036,7.87e-09,686000000.0,152.0,15
197.0,24.4710025787,60,0.036,7.87e-09,686000000.0,152.0,15
198.0,24.48480815884,60,0.036,7.87e-09,686000000.0,152.0,15
199.0,24.49861373898,60,0.036,7.87e-09,686000000.0,152.0,15
200.0,24.51241931912,60,0.036,7.87e-09,686000000.0,152.0,15
201.0,24.52622489926,60,0.036,7.87e-09,686000000.0,152.0,15
202.0,24.5400304794,60,0.036,7.87e-09,686000000.0,152.0,15
203.0,24.55383605954,60,0.036,7.87e-09,686000000.0,152.0,15
204.0,24.56764163968,60,0.036,7.87e-09,686000000.0,152.0,15
205.0,24.58144721982,60,0.036,7.87e-09,686000000.0,152.0,15
206.0,24.59525279996,60,0.036,7.87e-09,686000000.0,152.0,15
207.0,24.6090583801,60,0.036,7.87e-09,686000000.0,152.0,15
208.0,24.62281036375,60,0.036,7.87e-09,686000000.0,152.0,15
209.0,24.6365623474,60,0.036,7.87e-09,686000000.0,152.0,15
210.0,24.65031433105,60,0.036,7.87e-09,686000000.0,152.0,15
211.0,24.6640663147,60,0.036,7.87e-09,686000000.0,152.0,15
212.0,24.67781829835,60,0.036,7.87e-09,686000000.0,152.0,15
213.0,24.691570282,60,0.036,7.87e-09,686000000.0,152.0,15
214.0,24.70532226565,60,0.036,7.87e-09,686000000.0,152.0,15
215.0,24.7190742493,60,0.036,7.87e-09,686000000.0,152.0,15
216.0,24.73282623295,60,0.036,7.87e-09,686000000.0,152.0,15
217.0,24.7465782166,60,0.036,7.87e-09,686000000.0,152.0,15
218.0,24.76027679448,60,0.036,7.87e-09,686000000.0,152.0,15
219.0,24.77397537236,60,0.036,7.87e-09,686000000.0,152.0,15
220.0,24.78767395024,60,0.036,7.87e-09,686000000.0,152.0,15
221.0,24.80137252812,60,0.036,7.87e-09,686000000.0,152.0,15
222.0,24.815071106,60,0.036,7.87e-09,686000000.0,152.0,15
223.0,24.82876968388,60,0.036,7.87e-09,686000000.0,152.0,15
224.0,24.84246826176,60,0.036,7.87e-09,686000000.0,152.0,15
225.0,24.85616683964,60,0.036,7.87e-09,686000000.0,152.0,15
226.0,24.86986541752,60,0.036,7.87e-09,686000000.0,152.0,15
227.0,24.8835639954,60,0.036,7.87e-09,686000000.0,152.0,15
228.0,24.89720916752,60,0.036,7.87e-09,686000000.0,152.0,15
229.0,24.91085433964,60,0.036,7.87e-09,686000000.0,152.0,15
230.0,24.92449951176,60,0.036,7.87e-09,686000000.0,152.0,15
231.0,24.93814468388,60,0.036,7.87e-09,686000000.0,152.0,15
232.0,24.951789856,60,0.036,7.87e-09,686000000.0,152.0,15
233.0,24.96543502812,60,0.036,7.87e-09,686000000.0,152.0,15
234.0,24.97908020024,60,0.036,7.87e-09,686000000.0,152.0,15
235.0,24.99272537236,60,0.036,7.87e-09,686000000.0,152.0,15
236.0,25.00637054448,60,0.036,7.87e-09,686000000.0,152.0,15
237.0,25.0200157166,60,0.036,7.87e-09,686000000.0,152.0,15
238.0,25.03360805516,60,0.036,7.87e-09,686000000.0,152.0,15
239.0,25.04720039372,60,0.036,7.87e-09,686000000.0,152.0,15
240.0,25.06079273228,60,0.036,7.87e-09,686000000.0,152.0,15
241.0,25.07438507084,60,0.036,7.87e-09,686000000.0,152.0,15
242.0,25.0879774094,60,0.036,7.87e-09,686000000.0,152.0,15
243.0,25.10156974796,60,0.036,7.87e-09,686000000.0,152.0,15
244.0,25.11516208652,60,0.036,7.87e-09,686000000.0,152.0,15
245.0,25.12875442508,60,0.036,7.87e-09,686000000.0,152.0,15
246.0,25.14234676364,60,0.036,7.87e-09,686000000.0,152.0,15
247.0,25.1559391022,60,0.036,7.87e-09,686000000.0,152.0,15
248.0,25.1694786072,60,0.036,7.87e-09,686000000.0,152.0,15
249.0,25.1830181122,60,0.036,7.87e-09,686000000.0,152.0,15
250.0,25.1965576172,60,0.036,7.87e-09,686000000.0,152.0,15
251.0,25.2100971222,60,0.036,7.87e-09,686000000.0,152.0,15
252.0,25.2236366272,60,0.036,7.87e-09,686000000.0,152.0,15
253.0,25.2371761322,60,0.036,7.87e-09,686000000.0,152.0,15
254.0,25.2507156372,60,0.036,7.87e-09,686000000.0,152.0,15
255.0,25.2642551422,60,0.036,7.87e-09,686000000.0,152.0,15
256.0,25.2777946472,60,0.036,7.87e-09,686000000.0,152.0,15
257.0,25.2913341522,60,0.036,7.87e-09,686000000.0,152.0,15
258.0,25.30482101438,60,0.036,7.87e-09,686000000.0,152.0,15
259.0,25.31830787656,60,0.036,7.87e-09,686000000.0,152.0,15
260.0,25.33179473874,60,0.036,7.87e-09,686000000.0,152.0,15
261.0,25.34528160092,60,0.036,7.87e-09,686000000.0,152.0,15
262.0,25.3587684631,60,0.036,7.87e-09,686000000.0,152.0,15
263.0,25.37225532528,60,0.036,7.87e-09,686000000.0,152.0,15
264.0,25.38574218746,60,0.036,7.87e-09,686000000.0,152.0,15
265.0,25.39922904964,60,0.036,7.87e-09,686000000.0,152.0,15
266.0,25.41271591182,60,0.036,7.87e-09,686000000.0,152.0,15
267.0,25.426202774,60,0.036,7.87e-09,686000000.0,152.0,15
268.0,25.4396371841,60,0.036,7.87e-09,686000000.0,152.0,15
269.0,25.4530715942,60,0.036,7.87e-09,686000000.0,152.0,15
270.0,25.4665060043,60,0.036,7.87e-09,686000000.0,152.0,15
271.0,25.4799404144,60,0.036,7.87e-09,686000000.0,152.0,15
272.0,25.4933748245,60,0.036,7.87e-09,686000000.0,152.0,15
273.0,25.5068092346,60,0.036,7.87e-09,686000000.0,152.0,15
274.0,25.5202436447,60,0.036,7.87e-09,686000000.0,152.0,15
275.0,25.5336780548,60,0.036,7.87e-09,686000000.0,152.0,15
276.0,25.5471124649,60,0.036,7.87e-09,686000000.0,152.0,15
277.0,25.560546875,60,0.036,7.87e-09,686000000.0,152.0,15
278.0,25.57392921448,60,0.036,7.87e-09,686000000.0,152.0,15
279.0,25.58731155396,60,0.036,7.87e-09,686000000.0,152.0,15
280.0,25.60069389344,60,0.036,7.87e-09,686000000.0,152.0,15
281.0,25.61407623292,60,0.036,7.87e-09,686000000.0,152.0,15
282.0,25.6274585724,60,0.036,7.87e-09,686000000.0,152.0,15
283.0,25.64084091188,60,0.036,7.87e-09,686000000.0,152.0,15
284.0,25.65422325136,60,0.036,7.87e-09,686000000.0,152.0,15
285.0,25.66760559084,60,0.036,7.87e-09,686000000.0,152.0,15
286.0,25.68098793032,60,0.036,7.87e-09,686000000.0,152.0,15
287.0,25.6943702698,60,0.036,7.87e-09,686000000.0,152.0,15
288.0,25.70770034792,60,0.036,7.87e-09,686000000.0,152.0,15
289.0,25.72103042604,60,0.036,7.87e-09,686000000.0,152.0,15
290.0,25.73436050416,60,0.036,7.87e-09,686000000.0,152.0,15
291.0,25.74769058228,60,0.036,7.87e-09,686000000.0,152.0,15
292.0,25.7610206604,60,0.036,7.87e-09,686000000.0,152.0,15
293.0,25.77435073852,60,0.036,7.87e-09,686000000.0,152.0,15
294.0,25.78768081664,60,0.036,7.87e-09,686000000.0,152.0,15
295.0,25.80101089476,60,0.036,7.87e-09,686000000.0,152.0,15
296.0,25.81434097288,60,0.036,7.87e-09,686000000.0,152.0,15
297.0,25.827671051,60,0.036,7.87e-09,686000000.0,152.0,15
298.0,25.84094963071,60,0.036,7.87e-09,686000000.0,152.0,15
299.0,25.85422821042,60,0.036,7.87e-09,686000000.0,152.0,15
300.0,25.86750679013,60,0.036,7.87e-09,686000000.0,152.0,15
301.0,25.88078536984,60,0.036,7.87e-09,686000000.0,152.0,15
302.0,25.89406394955,60,0.036,7.87e-09,686000000.0,152.0,15
303.0,25.90734252926,60,0.036,7.87e-09,686000000.0,152.0,15
304.0,25.92062110897,60,0.036,7.87e-09,686000000.0,152.0,15
305.0,25.93389968868,60,0.036,7.87e-09,686000000.0,152.0,15
306.0,25.94717826839,60,0.036,7.87e-09,686000000.0,152.0,15
307.0,25.9604568481,60,0.036,7.87e-09,686000000.0,152.0,15
308.0,25.97368354793,60,0.036,7.87e-09,686000000.0,152.0,15
309.0,25.98691024776,60,0.036,7.87e-09,686000000.0,152.0,15
310.0,26.00013694759,60,0.036,7.87e-09,686000000.0,152.0,15
311.0,26.01336364742,60,0.036,7.87e-09,686000000.0,152.0,15
312.0,26.02659034725,60,0.036,7.87e-09,686000000.0,152.0,15
313.0,26.03981704708,60,0.036,7.87e-09,686000000.0,152.0,15
314.0,26.05304374691,60,0.036,7.87e-09,686000000.0,152.0,15
315.0,26.06627044674,60,0.036,7.87e-09,686000000.0,152.0,15
316.0,26.07949714657,60,0.036,7.87e-09,686000000.0,152.0,15
317.0,26.0927238464,60,0.036,7.87e-09,686000000.0,152.0,15
318.0,26.10589942929,60,0.036,7.87e-09,686000000.0,152.0,15
319.0,26.11907501218,60,0.036,7.87e-09,686000000.0,152.0,15
320.0,26.13225059507,60,0.036,7.87e-09,686000000.0,152.0,15
321.0,26.14542617796,60,0.036,7.87e-09,686000000.0,152.0,15
322.0,26.15860176085,60,0.036,7.87e-09,686000000.0,152.0,15
323.0,26.17177734374,60,0.036,7.87e-09,686000000.0,152.0,15
324.0,26.18495292663,60,0.036,7.87e-09,686000000.0,152.0,15
325.0,26.19812850952,60,0.036,7.87e-09,686000000.0,152.0,15
326.0,26.21130409241,60,0.036,7.87e-09,686000000.0,152.0,15
327.0,26.2244796753,60,0.036,7.87e-09,686000000.0,152.0,15
328.0,26.23760395051,60,0.036,7.87e-09,686000000.0,152.0,15
329.0,26.25072822572,60,0.036,7.87e-09,686000000.0,152.0,15
330.0,26.26385250093,60,0.036,7.87e-09,686000000.0,152.0,15
