time,T_int,T_ext_1,Film_Coef,Density,Specific_Heat,Thermal_Conductivity,Radius
1.0,21.986284256,22.88,0.036,7.87e-09,586000000.0,152.0,15
2.0,21.9754066467,23.76,0.036,7.87e-09,586000000.0,152.0,15
3.0,21.966337204,24.64,0.036,7.87e-09,586000000.0,152.0,15
4.0,21.95943546295,25.52,0.036,7.87e-09,586000000.0,152.0,15
5.0,21.9525337219,26.4,0.036,7.87e-09,586000000.0,152.0,15
6.0,21.94857788085,27.28,0.036,7.87e-09,586000000.0,152.0,15
7.0,21.9446220398,28.16,0.036,7.87e-09,586000000.0,152.0,15
8.0,21.94066619875,29.04,0.036,7.87e-09,586000000.0,152.0,15
9.0,21.9367103577,29.92,0.036,7.87e-09,586000000.0,152.0,15
10.0,21.9376428127625,30.8,0.036,7.87e-09,586000000.0,152.0,15
11.0,21.938575267825,31.68,0.036,7.87e-09,586000000.0,152.0,15
12.0,21.9395077228875,32.56,0.036,7.87e-09,586000000.0,152.0,15
13.0,21.94044017795,33.44,0.036,7.87e-09,586000000.0,152.0,15
14.0,21.9413726330125,34.32,0.036,7.87e-09,586000000.0,152.0,15
15.0,21.942305088075,35.2,0.036,7.87e-09,586000000.0,152.0,15
16.0,21.9432375431375,36.08,0.036,7.87e-09,586000000.0,152.0,15
17.0,21.9441699982,36.96,0.036,7.87e-09,586000000.0,152.0,15
18.0,21.95091037753,37.84,0.036,7.87e-09,586000000.0,152.0,15
19.0,21.95765075686,38.72,0.036,7.87e-09,586000000.0,152.0,15
20.0,21.96439113619,39.6,0.036,7.87e-09,586000000.0,152.0,15
21.0,21.97113151552,40.48,0.036,7.87e-09,586000000.0,152.0,15
22.0,21.97787189485,41.36,0.036,7.87e-09,586000000.0,152.0,15
23.0,21.98461227418,42.24,0.036,7.87e-09,586000000.0,152.0,15
24.0,21.99135265351,43.12,0.036,7.87e-09,586000000.0,152.0,15
25.0,21.99809303284,44.0,0.036,7.87e-09,586000000.0,152.0,15
26.0,22.00483341217,44.88,0.036,7.87e-09,586000000.0,152.0,15
27.0,22.0115737915,45.76,0.036,7.87e-09,586000000.0,152.0,15
28.0,22.02405643463,46.64,0.036,7.87e-09,586000000.0,152.0,15
29.0,22.03653907776,47.52,0.036,7.87e-09,586000000.0,152.0,15
30.0,22.04902172089,48.4,0.036,7.87e-09,586000000.0,152.0,15
31.0,22.06150436402,49.28,0.036,7.87e-09,586000000.0,152.0,15
32.0,22.07398700715,50.16,0.036,7.87e-09,586000000.0,152.0,15
33.0,22.08646965028,51.04,0.036,7.87e-09,586000000.0,152.0,15
34.0,22.09895229341,51.92,0.036,7.87e-09,586000000.0,152.0,15
35.0,22.11143493654,52.8,0.036,7.87e-09,586000000.0,152.0,15
36.0,22.12391757967,53.68,0.036,7.87e-09,586000000.0,152.0,15
37.0,22.1364002228,54.56,0.036,7.87e-09,586000000.0,152.0,15
38.0,22.15460529329,55.44,0.036,7.87e-09,586000000.0,152.0,15
39.0,22.17281036378,56.32,0.036,7.87e-09,586000000.0,152.0,15
40.0,22.19101543427,57.2,0.036,7.87e-09,586000000.0,152.0,15
41.0,22.20922050476,58.08,0.036,7.87e-09,586000000.0,152.0,15
42.0,22.22742557525,58.96,0.036,7.87e-09,586000000.0,152.0,15
43.0,22.24563064574,59.84,0.036,7.87e-09,586000000.0,152.0,15
44.0,22.26383571623,60.72,0.036,7.87e-09,586000000.0,152.0,15
45.0,22.28204078672,61.6,0.036,7.87e-09,586000000.0,152.0,15
46.0,22.30024585721,62.48,0.036,7.87e-09,586000000.0,152.0,15
47.0,22.3184509277,63.36,0.036,7.87e-09,586000000.0,152.0,15
48.0,22.33745994565,64.24,0.036,7.87e-09,586000000.0,152.0,15
49.0,22.3564689636,65.12,0.036,7.87e-09,586000000.0,152.0,15
50.0,22.37547798155,66.0,0.036,7.87e-09,586000000.0,152.0,15
51.0,22.3944869995,62.94,0.036,7.87e-09,586000000.0,152.0,15
52.0,22.41349601745,62.88,0.036,7.87e-09,586000000.0,152.0,15
53.0,22.4325050354,62.82,0.036,7.87e-09,586000000.0,152.0,15
54.0,22.45151405335,62.76,0.036,7.87e-09,586000000.0,152.0,15
55.0,22.4705230713,62.7,0.036,7.87e-09,586000000.0,152.0,15
56.0,22.48953208925,62.64,0.036,7.87e-09,586000000.0,152.0,15
57.0,22.5085411072,62.58,0.036,7.87e-09,586000000.0,152.0,15
58.0,22.52668247225,62.52,0.036,7.87e-09,586000000.0,152.0,15
59.0,22.5448238373,62.46,0.036,7.87e-09,586000000.0,152.0,15
60.0,22.56296520235,62.4,0.036,7.87e-09,586000000.0,152.0,15
61.0,22.5811065674,62.34,0.036,7.87e-09,586000000.0,152.0,15
62.0,22.59924793245,62.28,0.036,7.87e-09,586000000.0,152.0,15
63.0,22.6173892975,62.22,0.036,7.87e-09,586000000.0,152.0,15
64.0,22.63553066255,62.16,0.036,7.87e-09,586000000.0,152.0,15
65.0,22.6536720276,62.1,0.036,7.87e-09,586000000.0,152.0,15
66.0,22.67181339265,62.04,0.036,7.87e-09,586000000.0,152.0,15
67.0,22.6899547577,61.98,0.036,7.87e-09,586000000.0,152.0,15
68.0,22.70747680665,61.92,0.036,7.87e-09,586000000.0,152.0,15
69.0,22.7249988556,61.86,0.036,7.87e-09,586000000.0,152.0,15
70.0,22.74252090455,61.8,0.036,7.87e-09,586000000.0,152.0,15
71.0,22.7600429535,61.74,0.036,7.87e-09,586000000.0,152.0,15
72.0,22.77756500245,61.68,0.036,7.87e-09,586000000.0,152.0,15
73.0,22.7950870514,61.62,0.036,7.87e-09,586000000.0,152.0,15
74.0,22.81260910035,61.56,0.036,7.87e-09,586000000.0,152.0,15
75.0,22.8301311493,61.5,0.036,7.87e-09,586000000.0,152.0,15
76.0,22.84765319825,61.44,0.036,7.87e-09,586000000.0,152.0,15
77.0,22.8651752472,61.38,0.036,7.87e-09,586000000.0,152.0,15
78.0,22.88211097718,61.32,0.036,7.87e-09,586000000.0,152.0,15
79.0,22.89904670716,61.26,0.036,7.87e-09,586000000.0,152.0,15
80.0,22.91598243714,61.2,0.036,7.87e-09,586000000.0,152.0,15
81.0,22.93291816712,61.14,0.036,7.87e-09,586000000.0,152.0,15
82.0,22.9498538971,61.08,0.036,7.87e-09,586000000.0,152.0,15
83.0,22.96678962708,61.02,0.036,7.87e-09,586000000.0,152.0,15
84.0,22.98372535706,60.96,0.036,7.87e-09,586000000.0,152.0,15
85.0,23.00066108704,60.9,0.036,7.87e-09,586000000.0,152.0,15
86.0,23.01759681702,60.84,0.036,7.87e-09,586000000.0,152.0,15
87.0,23.034532547,60.78,0.036,7.87e-09,586000000.0,152.0,15
88.0,23.05088310242,60.72,0.036,7.87e-09,586000000.0,152.0,15
89.0,23.06723365784,60.66,0.036,7.87e-09,586000000.0,152.0,15
90.0,23.08358421326,60.6,0.036,7.87e-09,586000000.0,152.0,15
91.0,23.09993476868,60.54,0.036,7.87e-09,586000000.0,152.0,15
92.0,23.1162853241,60.48,0.036,7.87e-09,586000000.0,152.0,15
93.0,23.13263587952,60.42,0.036,7.87e-09,586000000.0,152.0,15
94.0,23.14898643494,60.36,0.036,7.87e-09,586000000.0,152.0,15
95.0,23.16533699036,60.3,0.036,7.87e-09,586000000.0,152.0,15
96.0,23.18168754578,60.24,0.036,7.87e-09,586000000.0,152.0,15
97.0,23.1980381012,60.18,0.036,7.87e-09,586000000.0,152.0,15
98.0,23.21420917511,60.12,0.036,7.87e-09,586000000.0,152.0,15
99.0,23.23038024902,60.06,0.036,7.87e-09,586000000.0,152.0,15
100.0,23.24655132293,60.0,0.036,7.87e-09,586000000.0,152.0,15
101.0,23.26272239684,60,0.036,7.87e-09,586000000.0,152.0,15
102.0,23.27889347075,60,0.036,7.87e-09,586000000.0,152.0,15
103.0,23.29506454466,60,0.036,7.87e-09,586000000.0,152.0,15
104.0,23.31123561857,60,0.036,7.87e-09,586000000.0,152.0,15
105.0,23.32740669248,60,0.036,7.87e-09,586000000.0,152.0,15
106.0,23.34357776639,60,0.036,7.87e-09,586000000.0,152.0,15
107.0,23.3597488403,60,0.036,7.87e-09,586000000.0,152.0,15
108.0,23.37587642667,60,0.036,7.87e-09,586000000.0,152.0,15
109.0,23.39200401304,60,0.036,7.87e-09,586000000.0,152.0,15
110.0,23.40813159941,60,0.036,7.87e-09,586000000.0,152.0,15
111.0,23.42425918578,60,0.036,7.87e-09,586000000.0,152.0,15
112.0,23.44038677215,60,0.036,7.87e-09,586000000.0,152.0,15
113.0,23.45651435852,60,0.036,7.87e-09,586000000.0,152.0,15
114.0,23.47264194489,60,0.036,7.87e-09,586000000.0,152.0,15
115.0,23.48876953126,60,0.036,7.87e-09,586000000.0,152.0,15
116.0,23.50489711763,60,0.036,7.87e-09,586000000.0,152.0,15
117.0,23.521024704,60,0.036,7.87e-09,586000000.0,152.0,15
118.0,23.53708591463,60,0.036,7.87e-09,586000000.0,152.0,15
119.0,23.55314712526,60,0.036,7.87e-09,586000000.0,152.0,15
120.0,23.56920833589,60,0.036,7.87e-09,586000000.0,152.0,15
121.0,23.58526954652,60,0.036,7.87e-09,586000000.0,152.0,15
122.0,23.60133075715,60,0.036,7.87e-09,586000000.0,152.0,15
123.0,23.61739196778,60,0.036,7.87e-09,586000000.0,152.0,15
124.0,23.63345317841,60,0.036,7.87e-09,586000000.0,152.0,15
125.0,23.64951438904,60,0.036,7.87e-09,586000000.0,152.0,15
126.0,23.66557559967,60,0.036,7.87e-09,586000000.0,152.0,15
127.0,23.6816368103,60,0.036,7.87e-09,586000000.0,152.0,15
128.0,23.69762821197,60,0.036,7.87e-09,586000000.0,152.0,15
129.0,23.71361961364,60,0.036,7.87e-09,586000000.0,152.0,15
130.0,23.72961101531,60,0.036,7.87e-09,586000000.0,152.0,15
131.0,23.74560241698,60,0.036,7.87e-09,586000000.0,152.0,15
132.0,23.76159381865,60,0.036,7.87e-09,586000000.0,152.0,15
133.0,23.77758522032,60,0.036,7.87e-09,586000000.0,152.0,15
134.0,23.79357662199,60,0.036,7.87e-09,586000000.0,152.0,15
135.0,23.80956802366,60,0.036,7.87e-09,586000000.0,152.0,15
136.0,23.82555942533,60,0.036,7.87e-09,586000000.0,152.0,15
137.0,23.841550827,60,0.036,7.87e-09,586000000.0,152.0,15
138.0,23.85747165678,60,0.036,7.87e-09,586000000.0,152.0,15
139.0,23.87339248656,60,0.036,7.87e-09,586000000.0,152.0,15
140.0,23.88931331634,60,0.036,7.87e-09,586000000.0,152.0,15
141.0,23.90523414612,60,0.036,7.87e-09,586000000.0,152.0,15
142.0,23.9211549759,60,0.036,7.87e-09,586000000.0,152.0,15
143.0,23.93707580568,60,0.036,7.87e-09,586000000.0,152.0,15
144.0,23.95299663546,60,0.036,7.87e-09,586000000.0,152.0,15
145.0,23.96891746524,60,0.036,7.87e-09,586000000.0,152.0,15
146.0,23.98483829502,60,0.036,7.87e-09,586000000.0,152.0,15
147.0,24.0007591248,60,0.036,7.87e-09,586000000.0,152.0,15
148.0,24.0166095734,60,0.036,7.87e-09,586000000.0,152.0,15
149.0,24.032460022,60,0.036,7.87e-09,586000000.0,152.0,15
150.0,24.0483104706,60,0.036,7.87e-09,586000000.0,152.0,15
151.0,24.0641609192,60,0.036,7.87e-09,586000000.0,152.0,15
152.0,24.0800113678,60,0.036,7.87e-09,586000000.0,152.0,15
153.0,24.0958618164,60,0.036,7.87e-09,586000000.0,152.0,15
154.0,24.111712265,60,0.036,7.87e-09,586000000.0,152.0,15
155.0,24.1275627136,60,0.036,7.87e-09,586000000.0,152.0,15
156.0,24.1434131622,60,0.036,7.87e-09,586000000.0,152.0,15
157.0,24.1592636108,60,0.036,7.87e-09,586000000.0,152.0,15
158.0,24.17504425045,60,0.036,7.87e-09,586000000.0,152.0,15
159.0,24.1908248901,60,0.036,7.87e-09,586000000.0,152.0,15
160.0,24.20660552975,60,0.036,7.87e-09,586000000.0,152.0,15
161.0,24.2223861694,60,0.036,7.87e-09,586000000.0,152.0,15
162.0,24.23816680905,60,0.036,7.87e-09,586000000.0,152.0,15
163.0,24.2539474487,60,0.036,7.87e-09,586000000.0,152.0,15
164.0,24.26972808835,60,0.036,7.87e-09,586000000.0,152.0,15
165.0,24.285508728,60,0.036,7.87e-09,586000000.0,152.0,15
166.0,24.30128936765,60,0.036,7.87e-09,586000000.0,152.0,15
167.0,24.3170700073,60,0.036,7.87e-09,586000000.0,152.0,15
168.0,24.33278121946,60,0.036,7.87e-09,586000000.0,152.0,15
169.0,24.34849243162,60,0.036,7.87e-09,586000000.0,152.0,15
170.0,24.36420364378,60,0.036,7.87e-09,586000000.0,152.0,15
171.0,24.37991485594,60,0.036,7.87e-09,586000000.0,152.0,15
172.0,24.3956260681,60,0.036,7.87e-09,586000000.0,152.0,15
173.0,24.41133728026,60,0.036,7.87e-09,586000000.0,152.0,15
174.0,24.42704849242,60,0.036,7.87e-09,586000000.0,152.0,15
175.0,24.44275970458,60,0.036,7.87e-09,586000000.0,152.0,15
176.0,24.45847091674,60,0.036,7.87e-09,586000000.0,152.0,15
177.0,24.4741821289,60,0.036,7.87e-09,586000000.0,152.0,15
178.0,24.48982391357,60,0.036,7.87e-09,586000000.0,152.0,15
179.0,24.50546569824,60,0.036,7.87e-09,586000000.0,152.0,15
180.0,24.52110748291,60,0.036,7.87e-09,586000000.0,152.0,15
181.0,24.53674926758,60,0.036,7.87e-09,586000000.0,152.0,15
182.0,24.55239105225,60,0.036,7.87e-09,586000000.0,152.0,15
183.0,24.56803283692,60,0.036,7.87e-09,586000000.0,152.0,15
184.0,24.58367462159,60,0.036,7.87e-09,586000000.0,152.0,15
185.0,24.59931640626,60,0.036,7.87e-09,586000000.0,152.0,15
186.0,24.61495819093,60,0.036,7.87e-09,586000000.0,152.0,15
187.0,24.6305999756,60,0.036,7.87e-09,586000000.0,152.0,15
188.0,24.64617290498,60,0.036,7.87e-09,586000000.0,152.0,15
189.0,24.66174583436,60,0.036,7.87e-09,586000000.0,152.0,15
190.0,24.67731876374,60,0.036,7.87e-09,586000000.0,152.0,15
191.0,24.69289169312,60,0.036,7.87e-09,586000000.0,152.0,15
192.0,24.7084646225,60,0.036,7.87e-09,586000000.0,152.0,15
193.0,24.72403755188,60,0.036,7.87e-09,586000000.0,152.0,15
194.0,24.73961048126,60,0.036,7.87e-09,586000000.0,152.0,15
195.0,24.75518341064,60,0.036,7.87e-09,586000000.0,152.0,15
196.0,24.77075634002,60,0.036,7.87e-09,586000000.0,152.0,15
197.0,24.7863292694,60,0.036,7.87e-09,586000000.0,152.0,15
198.0,24.80183353423,60,0.036,7.87e-09,586000000.0,152.0,15
199.0,24.81733779906,60,0.036,7.87e-09,586000000.0,152.0,15
200.0,24.83284206389,60,0.036,7.87e-09,586000000.0,152.0,15
201.0,24.84834632872,60,0.036,7.87e-09,586000000.0,152.0,15
202.0,24.86385059355,60,0.036,7.87e-09,586000000.0,152.0,15
203.0,24.87935485838,60,0.036,7.87e-09,586000000.0,152.0,15
204.0,24.89485912321,60,0.036,7.87e-09,586000000.0,152.0,15
205.0,24.91036338804,60,0.036,7.87e-09,586000000.0,152.0,15
206.0,24.92586765287,60,0.036,7.87e-09,586000000.0,152.0,15
207.0,24.9413719177,60,0.036,7.87e-09,586000000.0,152.0,15
208.0,24.95680809019,60,0.036,7.87e-09,586000000.0,152.0,15
209.0,24.97224426268,60,0.036,7.87e-09,586000000.0,152.0,15
210.0,24.98768043517,60,0.036,7.87e-09,586000000.0,152.0,15
211.0,25.00311660766,60,0.036,7.87e-09,586000000.0,152.0,15
212.0,25.01855278015,60,0.036,7.87e-09,586000000.0,152.0,15
213.0,25.03398895264,60,0.036,7.87e-09,586000000.0,152.0,15
214.0,25.04942512513,60,0.036,7.87e-09,586000000.0,152.0,15
215.0,25.06486129762,60,0.036,7.87e-09,586000000.0,152.0,15
216.0,25.08029747011,60,0.036,7.87e-09,586000000.0,152.0,15
217.0,25.0957336426,60,0.036,7.87e-09,586000000.0,152.0,15
218.0,25.11110172274,60,0.036,7.87e-09,586000000.0,152.0,15
219.0,25.12646980288,60,0.036,7.87e-09,586000000.0,152.0,15
220.0,25.14183788302,60,0.036,7.87e-09,586000000.0,152.0,15
221.0,25.15720596316,60,0.036,7.87e-09,586000000.0,152.0,15
222.0,25.1725740433,60,0.036,7.87e-09,586000000.0,152.0,15
223.0,25.18794212344,60,0.036,7.87e-09,586000000.0,152.0,15
224.0,25.20331020358,60,0.036,7.87e-09,586000000.0,152.0,15
225.0,25.21867828372,60,0.036,7.87e-09,586000000.0,152.0,15
226.0,25.23404636386,60,0.036,7.87e-09,586000000.0,152.0,15
227.0,25.249414444,60,0.036,7.87e-09,586000000.0,152.0,15
228.0,25.26471481326,60,0.036,7.87e-09,586000000.0,152.0,15
229.0,25.28001518252,60,0.036,7.87e-09,586000000.0,152.0,15
230.0,25.29531555178,60,0.036,7.87e-09,586000000.0,152.0,15
231.0,25.31061592104,60,0.036,7.87e-09,586000000.0,152.0,15
232.0,25.3259162903,60,0.036,7.87e-09,586000000.0,152.0,15
233.0,25.34121665956,60,0.036,7.87e-09,586000000.0,152.0,15
234.0,25.35651702882,60,0.036,7.87e-09,586000000.0,152.0,15
235.0,25.37181739808,60,0.036,7.87e-09,586000000.0,152.0,15
236.0,25.38711776734,60,0.036,7.87e-09,586000000.0,152.0,15
237.0,25.4024181366,60,0.036,7.87e-09,586000000.0,152.0,15
238.0,25.41765117646,60,0.036,7.87e-09,586000000.0,152.0,15
239.0,25.43288421632,60,0.036,7.87e-09,586000000.0,152.0,15
240.0,25.44811725618,60,0.036,7.87e-09,586000000.0,152.0,15
241.0,25.46335029604,60,0.036,7.87e-09,586000000.0,152.0,15
242.0,25.4785833359,60,0.036,7.87e-09,586000000.0,152.0,15
243.0,25.49381637576,60,0.036,7.87e-09,586000000.0,152.0,15
244.0,25.50904941562,60,0.036,7.87e-09,586000000.0,152.0,15
245.0,25.52428245548,60,0.036,7.87e-09,586000000.0,152.0,15
246.0,25.53951549534,60,0.036,7.87e-09,586000000.0,152.0,15
247.0,25.5547485352,60,0.036,7.87e-09,586000000.0,152.0,15
248.0,25.56991462711,60,0.036,7.87e-09,586000000.0,152.0,15
249.0,25.58508071902,60,0.036,7.87e-09,586000000.0,152.0,15
250.0,25.60024681093,60,0.036,7.87e-09,586000000.0,152.0,15
251.0,25.61541290284,60,0.036,7.87e-09,586000000.0,152.0,15
252.0,25.63057899475,60,0.036,7.87e-09,586000000.0,152.0,15
253.0,25.64574508666,60,0.036,7.87e-09,586000000.0,152.0,15
254.0,25.66091117857,60,0.036,7.87e-09,586000000.0,152.0,15
255.0,25.67607727048,60,0.036,7.87e-09,586000000.0,152.0,15
256.0,25.69124336239,60,0.036,7.87e-09,586000000.0,152.0,15
257.0,25.7064094543,60,0.036,7.87e-09,586000000.0,152.0,15
258.0,25.72150859829,60,0.036,7.87e-09,586000000.0,152.0,15
259.0,25.73660774228,60,0.036,7.87e-09,586000000.0,152.0,15
260.0,25.75170688627,60,0.036,7.87e-09,586000000.0,152.0,15
261.0,25.76680603026,60,0.036,7.87e-09,586000000.0,152.0,15
262.0,25.78190517425,60,0.036,7.87e-09,586000000.0,152.0,15
263.0,25.79700431824,60,0.036,7.87e-09,586000000.0,152.0,15
264.0,25.81210346223,60,0.036,7.87e-09,586000000.0,152.0,15
265.0,25.82720260622,60,0.036,7.87e-09,586000000.0,152.0,15
266.0,25.84230175021,60,0.036,7.87e-09,586000000.0,152.0,15
267.0,25.8574008942,60,0.036,7.87e-09,586000000.0,152.0,15
268.0,25.87243366245,60,0.036,7.87e-09,586000000.0,152.0,15
269.0,25.8874664307,60,0.036,7.87e-09,586000000.0,152.0,15
270.0,25.90249919895,60,0.036,7.87e-09,586000000.0,152.0,15
271.0,25.9175319672,60,0.036,7.87e-09,586000000.0,152.0,15
272.0,25.93256473545,60,0.036,7.87e-09,586000000.0,152.0,15
273.0,25.9475975037,60,0.036,7.87e-09,586000000.0,152.0,15
274.0,25.96263027195,60,0.036,7.87e-09,586000000.0,152.0,15
275.0,25.9776630402,60,0.036,7.87e-09,586000000.0,152.0,15
276.0,25.99269580845,60,0.036,7.87e-09,586000000.0,152.0,15
277.0,26.0077285767,60,0.036,7.87e-09,586000000.0,152.0,15
278.0,26.02269515995,60,0.036,7.87e-09,586000000.0,152.0,15
279.0,26.0376617432,60,0.036,7.87e-09,586000000.0,152.0,15
280.0,26.05262832645,60,0.036,7.87e-09,586000000.0,152.0,15
281.0,26.0675949097,60,0.036,7.87e-09,586000000.0,152.0,15
282.0,26.08256149295,60,0.036,7.87e-09,586000000.0,152.0,15
283.0,26.0975280762,60,0.036,7.87e-09,586000000.0,152.0,15
284.0,26.11249465945,60,0.036,7.87e-09,586000000.0,152.0,15
285.0,26.1274612427,60,0.036,7.87e-09,586000000.0,152.0,15
286.0,26.14242782595,60,0.036,7.87e-09,586000000.0,152.0,15
287.0,26.1573944092,60,0.036,7.87e-09,586000000.0,152.0,15
288.0,26.17229499819,60,0.036,7.87e-09,586000000.0,152.0,15
289.0,26.18719558718,60,0.036,7.87e-09,586000000.0,152.0,15
290.0,26.20209617617,60,0.036,7.87e-09,586000000.0,152.0,15
291.0,26.21699676516,60,0.036,7.87e-09,586000000.0,152.0,15
292.0,26.23189735415,60,0.036,7.87e-09,586000000.0,152.0,15
293.0,26.24679794314,60,0.036,7.87e-09,586000000.0,152.0,15
294.0,26.26169853213,60,0.036,7.87e-09,586000000.0,152.0,15
295.0,26.27659912112,60,0.036,7.87e-09,586000000.0,152.0,15
296.0,26.29149971011,60,0.036,7.87e-09,586000000.0,152.0,15
297.0,26.3064002991,60,0.036,7.87e-09,586000000.0,152.0,15
298.0,26.32123527529,60,0.036,7.87e-09,586000000.0,152.0,15
299.0,26.33607025148,60,0.036,7.87e-09,586000000.0,152.0,15
300.0,26.35090522767,60,0.036,7.87e-09,586000000.0,152.0,15
301.0,26.36574020386,60,0.036,7.87e-09,586000000.0,152.0,15
302.0,26.38057518005,60,0.036,7.87e-09,586000000.0,152.0,15
303.0,26.39541015624,60,0.036,7.87e-09,586000000.0,152.0,15
304.0,26.41024513243,60,0.036,7.87e-09,586000000.0,152.0,15
305.0,26.42508010862,60,0.036,7.87e-09,586000000.0,152.0,15
306.0,26.43991508481,60,0.036,7.87e-09,586000000.0,152.0,15
307.0,26.454750061,60,0.036,7.87e-09,586000000.0,152.0,15
308.0,26.46951980588,60,0.036,7.87e-09,586000000.0,152.0,15
309.0,26.48428955076,60,0.036,7.87e-09,586000000.0,152.0,15
310.0,26.49905929564,60,0.036,7.87e-09,586000000.0,152.0,15
311.0,26.51382904052,60,0.036,7.87e-09,586000000.0,152.0,15
312.0,26.5285987854,60,0.036,7.87e-09,586000000.0,152.0,15
313.0,26.54336853028,60,0.036,7.87e-09,586000000.0,152.0,15
314.0,26.55813827516,60,0.036,7.87e-09,586000000.0,152.0,15
315.0,26.57290802004,60,0.036,7.87e-09,586000000.0,152.0,15
316.0,26.58767776492,60,0.036,7.87e-09,586000000.0,152.0,15
317.0,26.6024475098,60,0.036,7.87e-09,586000000.0,152.0,15
318.0,26.61715221408,60,0.036,7.87e-09,586000000.0,152.0,15
319.0,26.63185691836,60,0.036,7.87e-09,586000000.0,152.0,15
320.0,26.64656162264,60,0.036,7.87e-09,586000000.0,152.0,15
321.0,26.66126632692,60,0.036,7.87e-09,586000000.0,152.0,15
322.0,26.6759710312,60,0.036,7.87e-09,586000000.0,152.0,15
323.0,26.69067573548,60,0.036,7.87e-09,586000000.0,152.0,15
324.0,26.70538043976,60,0.036,7.87e-09,586000000.0,152.0,15
325.0,26.72008514404,60,0.036,7.87e-09,586000000.0,152.0,15
326.0,26.73478984832,60,0.036,7.87e-09,586000000.0,152.0,15
327.0,26.7494945526,60,0.036,7.87e-09,586000000.0,152.0,15
328.0,26.76413459777,60,0.036,7.87e-09,586000000.0,152.0,15
329.0,26.77877464294,60,0.036,7.87e-09,586000000.0,152.0,15
330.0,26.79341468811,60,0.036,7.87e-09,586000000.0,152.0,15
