time,T_int,T_ext_1,Film_Coef,Density,Specific_Heat,Thermal_Conductivity,Radius
1.0,21.9994926453,22.88,0.036,2.71e-09,1221000000.0,285.0,25
2.0,21.9985084534,23.76,0.036,2.71e-09,1221000000.0,285.0,25
3.0,21.9969768524,24.64,0.036,2.71e-09,1221000000.0,285.0,25
4.0,21.99465084075,25.52,0.036,2.71e-09,1221000000.0,285.0,25
5.0,21.9923248291,26.4,0.036,2.71e-09,1221000000.0,285.0,25
6.0,21.9897761345,27.28,0.036,2.71e-09,1221000000.0,285.0,25
7.0,21.9872274399,28.16,0.036,2.71e-09,1221000000.0,285.0,25
8.0,21.9846787453,29.04,0.036,2.71e-09,1221000000.0,285.0,25
9.0,21.9821300507,29.92,0.036,2.71e-09,1221000000.0,285.0,25
10.0,21.981149435075,30.8,0.036,2.71e-09,1221000000.0,285.0,25
11.0,21.98016881945,31.68,0.036,2.71e-09,1221000000.0,285.0,25
12.0,21.979188203825,32.56,0.036,2.71e-09,1221000000.0,285.0,25
13.0,21.9782075882,33.44,0.036,2.71e-09,1221000000.0,285.0,25
14.0,21.977226972575,34.32,0.036,2.71e-09,1221000000.0,285.0,25
15.0,21.97624635695,35.2,0.036,2.71e-09,1221000000.0,285.0,25
16.0,21.975265741325,36.08,0.036,2.71e-09,1221000000.0,285.0,25
17.0,21.9742851257,36.96,0.036,2.71e-09,1221000000.0,285.0,25
18.0,21.97609500882,37.84,0.036,2.71e-09,1221000000.0,285.0,25
19.0,21.97790489194,38.72,0.036,2.71e-09,1221000000.0,285.0,25
20.0,21.97971477506,39.6,0.036,2.71e-09,1221000000.0,285.0,25
21.0,21.98152465818,40.48,0.036,2.71e-09,1221000000.0,285.0,25
22.0,21.9833345413,41.36,0.036,2.71e-09,1221000000.0,285.0,25
23.0,21.98514442442,42.24,0.036,2.71e-09,1221000000.0,285.0,25
24.0,21.98695430754,43.12,0.036,2.71e-09,1221000000.0,285.0,25
25.0,21.98876419066,44.0,0.036,2.71e-09,1221000000.0,285.0,25
26.0,21.99057407378,44.88,0.036,2.71e-09,1221000000.0,285.0,25
27.0,21.9923839569,45.76,0.036,2.71e-09,1221000000.0,285.0,25
28.0,21.99720363616,46.64,0.036,2.71e-09,1221000000.0,285.0,25
29.0,22.00202331542,47.52,0.036,2.71e-09,1221000000.0,285.0,25
30.0,22.00684299468,48.4,0.036,2.71e-09,1221000000.0,285.0,25
31.0,22.01166267394,49.28,0.036,2.71e-09,1221000000.0,285.0,25
32.0,22.0164823532,50.16,0.036,2.71e-09,1221000000.0,285.0,25
33.0,22.02130203246,51.04,0.036,2.71e-09,1221000000.0,285.0,25
34.0,22.02612171172,51.92,0.036,2.71e-09,1221000000.0,285.0,25
35.0,22.03094139098,52.8,0.036,2.71e-09,1221000000.0,285.0,25
36.0,22.03576107024,53.68,0.036,2.71e-09,1221000000.0,285.0,25
37.0,22.0405807495,54.56,0.036,2.71e-09,1221000000.0,285.0,25
38.0,22.04847087859,55.44,0.036,2.71e-09,1221000000.0,285.0,25
39.0,22.05636100768,56.32,0.036,2.71e-09,1221000000.0,285.0,25
40.0,22.06425113677,57.2,0.036,2.71e-09,1221000000.0,285.0,25
41.0,22.07214126586,58.08,0.036,2.71e-09,1221000000.0,285.0,25
42.0,22.08003139495,58.96,0.036,2.71e-09,1221000000.0,285.0,25
43.0,22.08792152404,59.84,0.036,2.71e-09,1221000000.0,285.0,25
44.0,22.09581165313,60.72,0.036,2.71e-09,1221000000.0,285.0,25
45.0,22.10370178222,61.6,0.036,2.71e-09,1221000000.0,285.0,25
46.0,22.11159191131,62.48,0.036,2.71e-09,1221000000.0,285.0,25
47.0,22.1194820404,63.36,0.036,2.71e-09,1221000000.0,285.0,25
48.0,22.12891788482,64.24,0.036,2.71e-09,1221000000.0,285.0,25
49.0,22.13835372924,65.12,0.036,2.71e-09,1221000000.0,285.0,25
50.0,22.14778957366,66.0,0.036,2.71e-09,1221000000.0,285.0,25
51.0,22.15722541808,62.94,0.036,2.71e-09,1221000000.0,285.0,25
52.0,22.1666612625,62.88,0.036,2.71e-09,1221000000.0,285.0,25
53.0,22.17609710692,62.82,0.036,2.71e-09,1221000000.0,285.0,25
54.0,22.18553295134,62.76,0.036,2.71e-09,1221000000.0,285.0,25
55.0,22.19496879576,62.7,0.036,2.71e-09,1221000000.0,285.0,25
56.0,22.20440464018,62.64,0.036,2.71e-09,1221000000.0,285.0,25
57.0,22.2138404846,62.58,0.036,2.71e-09,1221000000.0,285.0,25
58.0,22.22357902525,62.52,0.036,2.71e-09,1221000000.0,285.0,25
59.0,22.2333175659,62.46,0.036,2.71e-09,1221000000.0,285.0,25
60.0,22.24305610655,62.4,0.036,2.71e-09,1221000000.0,285.0,25
61.0,22.2527946472,62.34,0.036,2.71e-09,1221000000.0,285.0,25
62.0,22.26253318785,62.28,0.036,2.71e-09,1221000000.0,285.0,25
63.0,22.2722717285,62.22,0.036,2.71e-09,1221000000.0,285.0,25
64.0,22.28201026915,62.16,0.036,2.71e-09,1221000000.0,285.0,25
65.0,22.2917488098,62.1,0.036,2.71e-09,1221000000.0,285.0,25
66.0,22.30148735045,62.04,0.036,2.71e-09,1221000000.0,285.0,25
67.0,22.3112258911,61.98,0.036,2.71e-09,1221000000.0,285.0,25
68.0,22.32084178923,61.92,0.036,2.71e-09,1221000000.0,285.0,25
69.0,22.33045768736,61.86,0.036,2.71e-09,1221000000.0,285.0,25
70.0,22.34007358549,61.8,0.036,2.71e-09,1221000000.0,285.0,25
71.0,22.34968948362,61.74,0.036,2.71e-09,1221000000.0,285.0,25
72.0,22.35930538175,61.68,0.036,2.71e-09,1221000000.0,285.0,25
73.0,22.36892127988,61.62,0.036,2.71e-09,1221000000.0,285.0,25
74.0,22.37853717801,61.56,0.036,2.71e-09,1221000000.0,285.0,25
75.0,22.38815307614,61.5,0.036,2.71e-09,1221000000.0,285.0,25
76.0,22.39776897427,61.44,0.036,2.71e-09,1221000000.0,285.0,25
77.0,22.4073848724,61.38,0.036,2.71e-09,1221000000.0,285.0,25
78.0,22.41675415036,61.32,0.036,2.71e-09,1221000000.0,285.0,25
79.0,22.42612342832,61.26,0.036,2.71e-09,1221000000.0,285.0,25
80.0,22.43549270628,61.2,0.036,2.71e-09,1221000000.0,285.0,25
81.0,22.44486198424,61.14,0.036,2.71e-09,1221000000.0,285.0,25
82.0,22.4542312622,61.08,0.036,2.71e-09,1221000000.0,285.0,25
83.0,22.46360054016,61.02,0.036,2.71e-09,1221000000.0,285.0,25
84.0,22.47296981812,60.96,0.036,2.71e-09,1221000000.0,285.0,25
85.0,22.48233909608,60.9,0.036,2.71e-09,1221000000.0,285.0,25
86.0,22.49170837404,60.84,0.036,2.71e-09,1221000000.0,285.0,25
87.0,22.501077652,60.78,0.036,2.71e-09,1221000000.0,285.0,25
88.0,22.51016330721,60.72,0.036,2.71e-09,1221000000.0,285.0,25
89.0,22.51924896242,60.66,0.036,2.71e-09,1221000000.0,285.0,25
90.0,22.52833461763,60.6,0.036,2.71e-09,1221000000.0,285.0,25
91.0,22.53742027284,60.54,0.036,2.71e-09,1221000000.0,285.0,25
92.0,22.54650592805,60.48,0.036,2.71e-09,1221000000.0,285.0,25
93.0,22.55559158326,60.42,0.036,2.71e-09,1221000000.0,285.0,25
94.0,22.56467723847,60.36,0.036,2.71e-09,1221000000.0,285.0,25
95.0,22.57376289368,60.3,0.036,2.71e-09,1221000000.0,285.0,25
96.0,22.58284854889,60.24,0.036,2.71e-09,1221000000.0,285.0,25
97.0,22.5919342041,60.18,0.036,2.71e-09,1221000000.0,285.0,25
98.0,22.60085334778,60.12,0.036,2.71e-09,1221000000.0,285.0,25
99.0,22.60977249146,60.06,0.036,2.71e-09,1221000000.0,285.0,25
100.0,22.61869163514,60.0,0.036,2.71e-09,1221000000.0,285.0,25
101.0,22.62761077882,60,0.036,2.71e-09,1221000000.0,285.0,25
102.0,22.6365299225,60,0.036,2.71e-09,1221000000.0,285.0,25
103.0,22.64544906618,60,0.036,2.71e-09,1221000000.0,285.0,25
104.0,22.65436820986,60,0.036,2.71e-09,1221000000.0,285.0,25
105.0,22.66328735354,60,0.036,2.71e-09,1221000000.0,285.0,25
106.0,22.67220649722,60,0.036,2.71e-09,1221000000.0,285.0,25
107.0,22.6811256409,60,0.036,2.71e-09,1221000000.0,285.0,25
108.0,22.68997745517,60,0.036,2.71e-09,1221000000.0,285.0,25
109.0,22.69882926944,60,0.036,2.71e-09,1221000000.0,285.0,25
110.0,22.70768108371,60,0.036,2.71e-09,1221000000.0,285.0,25
111.0,22.71653289798,60,0.036,2.71e-09,1221000000.0,285.0,25
112.0,22.72538471225,60,0.036,2.71e-09,1221000000.0,285.0,25
113.0,22.73423652652,60,0.036,2.71e-09,1221000000.0,285.0,25
114.0,22.74308834079,60,0.036,2.71e-09,1221000000.0,285.0,25
115.0,22.75194015506,60,0.036,2.71e-09,1221000000.0,285.0,25
116.0,22.76079196933,60,0.036,2.71e-09,1221000000.0,285.0,25
117.0,22.7696437836,60,0.036,2.71e-09,1221000000.0,285.0,25
118.0,22.77846202853,60,0.036,2.71e-09,1221000000.0,285.0,25
119.0,22.78728027346,60,0.036,2.71e-09,1221000000.0,285.0,25
120.0,22.79609851839,60,0.036,2.71e-09,1221000000.0,285.0,25
121.0,22.80491676332,60,0.036,2.71e-09,1221000000.0,285.0,25
122.0,22.81373500825,60,0.036,2.71e-09,1221000000.0,285.0,25
123.0,22.82255325318,60,0.036,2.71e-09,1221000000.0,285.0,25
124.0,22.83137149811,60,0.036,2.71e-09,1221000000.0,285.0,25
125.0,22.84018974304,60,0.036,2.71e-09,1221000000.0,285.0,25
126.0,22.84900798797,60,0.036,2.71e-09,1221000000.0,285.0,25
127.0,22.8578262329,60,0.036,2.71e-09,1221000000.0,285.0,25
128.0,22.86662044524,60,0.036,2.71e-09,1221000000.0,285.0,25
129.0,22.87541465758,60,0.036,2.71e-09,1221000000.0,285.0,25
130.0,22.88420886992,60,0.036,2.71e-09,1221000000.0,285.0,25
131.0,22.89300308226,60,0.036,2.71e-09,1221000000.0,285.0,25
132.0,22.9017972946,60,0.036,2.71e-09,1221000000.0,285.0,25
133.0,22.91059150694,60,0.036,2.71e-09,1221000000.0,285.0,25
134.0,22.91938571928,60,0.036,2.71e-09,1221000000.0,285.0,25
135.0,22.92817993162,60,0.036,2.71e-09,1221000000.0,285.0,25
136.0,22.93697414396,60,0.036,2.71e-09,1221000000.0,285.0,25
137.0,22.9457683563,60,0.036,2.71e-09,1221000000.0,285.0,25
138.0,22.95454082487,60,0.036,2.71e-09,1221000000.0,285.0,25
139.0,22.96331329344,60,0.036,2.71e-09,1221000000.0,285.0,25
140.0,22.97208576201,60,0.036,2.71e-09,1221000000.0,285.0,25
141.0,22.98085823058,60,0.036,2.71e-09,1221000000.0,285.0,25
142.0,22.98963069915,60,0.036,2.71e-09,1221000000.0,285.0,25
143.0,22.99840316772,60,0.036,2.71e-09,1221000000.0,285.0,25
144.0,23.00717563629,60,0.036,2.71e-09,1221000000.0,285.0,25
145.0,23.01594810486,60,0.036,2.71e-09,1221000000.0,285.0,25
146.0,23.02472057343,60,0.036,2.71e-09,1221000000.0,285.0,25
147.0,23.033493042,60,0.036,2.71e-09,1221000000.0,285.0,25
148.0,23.04224452973,60,0.036,2.71e-09,1221000000.0,285.0,25
149.0,23.05099601746,60,0.036,2.71e-09,1221000000.0,285.0,25
150.0,23.05974750519,60,0.036,2.71e-09,1221000000.0,285.0,25
151.0,23.06849899292,60,0.036,2.71e-09,1221000000.0,285.0,25
152.0,23.07725048065,60,0.036,2.71e-09,1221000000.0,285.0,25
153.0,23.08600196838,60,0.036,2.71e-09,1221000000.0,285.0,25
154.0,23.09475345611,60,0.036,2.71e-09,1221000000.0,285.0,25
155.0,23.10350494384,60,0.036,2.71e-09,1221000000.0,285.0,25
156.0,23.11225643157,60,0.036,2.71e-09,1221000000.0,285.0,25
157.0,23.1210079193,60,0.036,2.71e-09,1221000000.0,285.0,25
158.0,23.12973880767,60,0.036,2.71e-09,1221000000.0,285.0,25
159.0,23.13846969604,60,0.036,2.71e-09,1221000000.0,285.0,25
160.0,23.14720058441,60,0.036,2.71e-09,1221000000.0,285.0,25
161.0,23.15593147278,60,0.036,2.71e-09,1221000000.0,285.0,25
162.0,23.16466236115,60,0.036,2.71e-09,1221000000.0,285.0,25
163.0,23.17339324952,60,0.036,2.71e-09,1221000000.0,285.0,25
164.0,23.18212413789,60,0.036,2.71e-09,1221000000.0,285.0,25
165.0,23.19085502626,60,0.036,2.71e-09,1221000000.0,285.0,25
166.0,23.19958591463,60,0.036,2.71e-09,1221000000.0,285.0,25
167.0,23.208316803,60,0.036,2.71e-09,1221000000.0,285.0,25
168.0,23.217027092,60,0.036,2.71e-09,1221000000.0,285.0,25
169.0,23.225737381,60,0.036,2.71e-09,1221000000.0,285.0,25
170.0,23.23444767,60,0.036,2.71e-09,1221000000.0,285.0,25
171.0,23.243157959,60,0.036,2.71e-09,1221000000.0,285.0,25
172.0,23.251868248,60,0.036,2.71e-09,1221000000.0,285.0,25
173.0,23.260578537,60,0.036,2.71e-09,1221000000.0,285.0,25
174.0,23.269288826,60,0.036,2.71e-09,1221000000.0,285.0,25
175.0,23.277999115,60,0.036,2.71e-09,1221000000.0,285.0,25
176.0,23.286709404,60,0.036,2.71e-09,1221000000.0,285.0,25
177.0,23.295419693,60,0.036,2.71e-09,1221000000.0,285.0,25
178.0,23.3041091919,60,0.036,2.71e-09,1221000000.0,285.0,25
179.0,23.3127986908,60,0.036,2.71e-09,1221000000.0,285.0,25
180.0,23.3214881897,60,0.036,2.71e-09,1221000000.0,285.0,25
181.0,23.3301776886,60,0.036,2.71e-09,1221000000.0,285.0,25
182.0,23.3388671875,60,0.036,2.71e-09,1221000000.0,285.0,25
183.0,23.3475566864,60,0.036,2.71e-09,1221000000.0,285.0,25
184.0,23.3562461853,60,0.036,2.71e-09,1221000000.0,285.0,25
185.0,23.3649356842,60,0.036,2.71e-09,1221000000.0,285.0,25
186.0,23.3736251831,60,0.036,2.71e-09,1221000000.0,285.0,25
187.0,23.382314682,60,0.036,2.71e-09,1221000000.0,285.0,25
188.0,23.39098377227,60,0.036,2.71e-09,1221000000.0,285.0,25
189.0,23.39965286254,60,0.036,2.71e-09,1221000000.0,285.0,25
190.0,23.40832195281,60,0.036,2.71e-09,1221000000.0,285.0,25
191.0,23.41699104308,60,0.036,2.71e-09,1221000000.0,285.0,25
192.0,23.42566013335,60,0.036,2.71e-09,1221000000.0,285.0,25
193.0,23.43432922362,60,0.036,2.71e-09,1221000000.0,285.0,25
194.0,23.44299831389,60,0.036,2.71e-09,1221000000.0,285.0,25
195.0,23.45166740416,60,0.036,2.71e-09,1221000000.0,285.0,25
196.0,23.46033649443,60,0.036,2.71e-09,1221000000.0,285.0,25
197.0,23.4690055847,60,0.036,2.71e-09,1221000000.0,285.0,25
198.0,23.47765426634,60,0.036,2.71e-09,1221000000.0,285.0,25
199.0,23.48630294798,60,0.036,2.71e-09,1221000000.0,285.0,25
200.0,23.49495162962,60,0.036,2.71e-09,1221000000.0,285.0,25
201.0,23.50360031126,60,0.036,2.71e-09,1221000000.0,285.0,25
202.0,23.5122489929,60,0.036,2.71e-09,1221000000.0,285.0,25
203.0,23.52089767454,60,0.036,2.71e-09,1221000000.0,285.0,25
204.0,23.52954635618,60,0.036,2.71e-09,1221000000.0,285.0,25
205.0,23.53819503782,60,0.036,2.71e-09,1221000000.0,285.0,25
206.0,23.54684371946,60,0.036,2.71e-09,1221000000.0,285.0,25
207.0,23.5554924011,60,0.036,2.71e-09,1221000000.0,285.0,25
208.0,23.56412048338,60,0.036,2.71e-09,1221000000.0,285.0,25
209.0,23.57274856566,60,0.036,2.71e-09,1221000000.0,285.0,25
210.0,23.58137664794,60,0.036,2.71e-09,1221000000.0,285.0,25
211.0,23.59000473022,60,0.036,2.71e-09,1221000000.0,285.0,25
212.0,23.5986328125,60,0.036,2.71e-09,1221000000.0,285.0,25
213.0,23.60726089478,60,0.036,2.71e-09,1221000000.0,285.0,25
214.0,23.61588897706,60,0.036,2.71e-09,1221000000.0,285.0,25
215.0,23.62451705934,60,0.036,2.71e-09,1221000000.0,285.0,25
216.0,23.63314514162,60,0.036,2.71e-09,1221000000.0,285.0,25
217.0,23.6417732239,60,0.036,2.71e-09,1221000000.0,285.0,25
218.0,23.65038089754,60,0.036,2.71e-09,1221000000.0,285.0,25
219.0,23.65898857118,60,0.036,2.71e-09,1221000000.0,285.0,25
220.0,23.66759624482,60,0.036,2.71e-09,1221000000.0,285.0,25
221.0,23.67620391846,60,0.036,2.71e-09,1221000000.0,285.0,25
222.0,23.6848115921,60,0.036,2.71e-09,1221000000.0,285.0,25
223.0,23.69341926574,60,0.036,2.71e-09,1221000000.0,285.0,25
224.0,23.70202693938,60,0.036,2.71e-09,1221000000.0,285.0,25
225.0,23.71063461302,60,0.036,2.71e-09,1221000000.0,285.0,25
226.0,23.71924228666,60,0.036,2.71e-09,1221000000.0,285.0,25
227.0,23.7278499603,60,0.036,2.71e-09,1221000000.0,285.0,25
228.0,23.73643722532,60,0.036,2.71e-09,1221000000.0,285.0,25
229.0,23.74502449034,60,0.036,2.71e-09,1221000000.0,285.0,25
230.0,23.75361175536,60,0.036,2.71e-09,1221000000.0,285.0,25
231.0,23.76219902038,60,0.036,2.71e-09,1221000000.0,285.0,25
232.0,23.7707862854,60,0.036,2.71e-09,1221000000.0,285.0,25
233.0,23.77937355042,60,0.036,2.71e-09,1221000000.0,285.0,25
234.0,23.78796081544,60,0.036,2.71e-09,1221000000.0,285.0,25
235.0,23.79654808046,60,0.036,2.71e-09,1221000000.0,285.0,25
236.0,23.80513534548,60,0.036,2.71e-09,1221000000.0,285.0,25
237.0,23.8137226105,60,0.036,2.71e-09,1221000000.0,285.0,25
238.0,23.82228965762,60,0.036,2.71e-09,1221000000.0,285.0,25
239.0,23.83085670474,60,0.036,2.71e-09,1221000000.0,285.0,25
240.0,23.83942375186,60,0.036,2.71e-09,1221000000.0,285.0,25
241.0,23.84799079898,60,0.036,2.71e-09,1221000000.0,285.0,25
242.0,23.8565578461,60,0.036,2.71e-09,1221000000.0,285.0,25
243.0,23.86512489322,60,0.036,2.71e-09,1221000000.0,285.0,25
244.0,23.87369194034,60,0.036,2.71e-09,1221000000.0,285.0,25
245.0,23.88225898746,60,0.036,2.71e-09,1221000000.0,285.0,25
246.0,23.89082603458,60,0.036,2.71e-09,1221000000.0,285.0,25
247.0,23.8993930817,60,0.036,2.71e-09,1221000000.0,285.0,25
248.0,23.90793991092,60,0.036,2.71e-09,1221000000.0,285.0,25
249.0,23.91648674014,60,0.036,2.71e-09,1221000000.0,285.0,25
250.0,23.92503356936,60,0.036,2.71e-09,1221000000.0,285.0,25
251.0,23.93358039858,60,0.036,2.71e-09,1221000000.0,285.0,25
252.0,23.9421272278,60,0.036,2.71e-09,1221000000.0,285.0,25
253.0,23.95067405702,60,0.036,2.71e-09,1221000000.0,285.0,25
254.0,23.95922088624,60,0.036,2.71e-09,1221000000.0,285.0,25
255.0,23.96776771546,60,0.036,2.71e-09,1221000000.0,285.0,25
256.0,23.97631454468,60,0.036,2.71e-09,1221000000.0,285.0,25
257.0,23.9848613739,60,0.036,2.71e-09,1221000000.0,285.0,25
258.0,23.99338779449,60,0.036,2.71e-09,1221000000.0,285.0,25
259.0,24.00191421508,60,0.036,2.71e-09,1221000000.0,285.0,25
260.0,24.01044063567,60,0.036,2.71e-09,1221000000.0,285.0,25
261.0,24.01896705626,60,0.036,2.71e-09,1221000000.0,285.0,25
262.0,24.02749347685,60,0.036,2.71e-09,1221000000.0,285.0,25
263.0,24.03601989744,60,0.036,2.71e-09,1221000000.0,285.0,25
264.0,24.04454631803,60,0.036,2.71e-09,1221000000.0,285.0,25
265.0,24.05307273862,60,0.036,2.71e-09,1221000000.0,285.0,25
266.0,24.06159915921,60,0.036,2.71e-09,1221000000.0,285.0,25
267.0,24.0701255798,60,0.036,2.71e-09,1221000000.0,285.0,25
268.0,24.07863197324,60,0.036,2.71e-09,1221000000.0,285.0,25
269.0,24.08713836668,60,0.036,2.71e-09,1221000000.0,285.0,25
270.0,24.09564476012,60,0.036,2.71e-09,1221000000.0,285.0,25
271.0,24.10415115356,60,0.036,2.71e-09,1221000000.0,285.0,25
272.0,24.112657547,60,0.036,2.71e-09,1221000000.0,285.0,25
273.0,24.12116394044,60,0.036,2.71e-09,1221000000.0,285.0,25
274.0,24.12967033388,60,0.036,2.71e-09,1221000000.0,285.0,25
275.0,24.13817672732,60,0.036,2.71e-09,1221000000.0,285.0,25
276.0,24.14668312076,60,0.036,2.71e-09,1221000000.0,285.0,25
277.0,24.1551895142,60,0.036,2.71e-09,1221000000.0,285.0,25
278.0,24.16367568973,60,0.036,2.71e-09,1221000000.0,285.0,25
279.0,24.17216186526,60,0.036,2.71e-09,1221000000.0,285.0,25
280.0,24.18064804079,60,0.036,2.71e-09,1221000000.0,285.0,25
281.0,24.18913421632,60,0.036,2.71e-09,1221000000.0,285.0,25
282.0,24.19762039185,60,0.036,2.71e-09,1221000000.0,285.0,25
283.0,24.20610656738,60,0.036,2.71e-09,1221000000.0,285.0,25
284.0,24.21459274291,60,0.036,2.71e-09,1221000000.0,285.0,25
285.0,24.22307891844,60,0.036,2.71e-09,1221000000.0,285.0,25
286.0,24.23156509397,60,0.036,2.71e-09,1221000000.0,285.0,25
287.0,24.2400512695,60,0.036,2.71e-09,1221000000.0,285.0,25
288.0,24.24851722714,60,0.036,2.71e-09,1221000000.0,285.0,25
289.0,24.25698318478,60,0.036,2.71e-09,1221000000.0,285.0,25
290.0,24.26544914242,60,0.036,2.71e-09,1221000000.0,285.0,25
291.0,24.27391510006,60,0.036,2.71e-09,1221000000.0,285.0,25
292.0,24.2823810577,60,0.036,2.71e-09,1221000000.0,285.0,25
293.0,24.29084701534,60,0.036,2.71e-09,1221000000.0,285.0,25
294.0,24.29931297298,60,0.036,2.71e-09,1221000000.0,285.0,25
295.0,24.30777893062,60,0.036,2.71e-09,1221000000.0,285.0,25
296.0,24.31624488826,60,0.036,2.71e-09,1221000000.0,285.0,25
297.0,24.3247108459,60,0.036,2.71e-09,1221000000.0,285.0,25
298.0,24.33315696712,60,0.036,2.71e-09,1221000000.0,285.0,25
299.0,24.34160308834,60,0.036,2.71e-09,1221000000.0,285.0,25
300.0,24.35004920956,60,0.036,2.71e-09,1221000000.0,285.0,25
301.0,24.35849533078,60,0.036,2.71e-09,1221000000.0,285.0,25
302.0,24.366941452,60,0.036,2.71e-09,1221000000.0,285.0,25
303.0,24.37538757322,60,0.036,2.71e-09,1221000000.0,285.0,25
304.0,24.38383369444,60,0.036,2.71e-09,1221000000.0,285.0,25
305.0,24.39227981566,60,0.036,2.71e-09,1221000000.0,285.0,25
306.0,24.40072593688,60,0.036,2.71e-09,1221000000.0,285.0,25
307.0,24.4091720581,60,0.036,2.71e-09,1221000000.0,285.0,25
308.0,24.41759815216,60,0.036,2.71e-09,1221000000.0,285.0,25
309.0,24.42602424622,60,0.036,2.71e-09,1221000000.0,285.0,25
310.0,24.43445034028,60,0.036,2.71e-09,1221000000.0,285.0,25
311.0,24.44287643434,60,0.036,2.71e-09,1221000000.0,285.0,25
312.0,24.4513025284,60,0.036,2.71e-09,1221000000.0,285.0,25
313.0,24.45972862246,60,0.036,2.71e-09,1221000000.0,285.0,25
314.0,24.46815471652,60,0.036,2.71e-09,1221000000.0,285.0,25
315.0,24.47658081058,60,0.036,2.71e-09,1221000000.0,285.0,25
316.0,24.48500690464,60,0.036,2.71e-09,1221000000.0,285.0,25
317.0,24.4934329987,60,0.036,2.71e-09,1221000000.0,285.0,25
318.0,24.50183906559,60,0.036,2.71e-09,1221000000.0,285.0,25
319.0,24.51024513248,60,0.036,2.71e-09,1221000000.0,285.0,25
320.0,24.51865119937,60,0.036,2.71e-09,1221000000.0,285.0,25
321.0,24.52705726626,60,0.036,2.71e-09,1221000000.0,285.0,25
322.0,24.53546333315,60,0.036,2.71e-09,1221000000.0,285.0,25
323.0,24.54386940004,60,0.036,2.71e-09,1221000000.0,285.0,25
324.0,24.55227546693,60,0.036,2.71e-09,1221000000.0,285.0,25
325.0,24.56068153382,60,0.036,2.71e-09,1221000000.0,285.0,25
