time,T_int,T_ext_1,Film_Coef,Density,Specific_Heat,Thermal_Conductivity,Radius
1.0,21.9997253418,22.88,0.036,2.71e-09,1171000000.0,205.0,25
2.0,21.9993362427,23.76,0.036,2.71e-09,1171000000.0,205.0,25
3.0,21.99883461,24.64,0.036,2.71e-09,1171000000.0,205.0,25
4.0,21.99795246125,25.52,0.036,2.71e-09,1171000000.0,205.0,25
5.0,21.9970703125,26.4,0.036,2.71e-09,1171000000.0,205.0,25
6.0,21.9955716133,27.28,0.036,2.71e-09,1171000000.0,205.0,25
7.0,21.9940729141,28.16,0.036,2.71e-09,1171000000.0,205.0,25
8.0,21.9925742149,29.04,0.036,2.71e-09,1171000000.0,205.0,25
9.0,21.9910755157,29.92,0.036,2.71e-09,1171000000.0,205.0,25
10.0,21.989885568575,30.8,0.036,2.71e-09,1171000000.0,205.0,25
11.0,21.98869562145,31.68,0.036,2.71e-09,1171000000.0,205.0,25
12.0,21.987505674325,32.56,0.036,2.71e-09,1171000000.0,205.0,25
13.0,21.9863157272,33.44,0.036,2.71e-09,1171000000.0,205.0,25
14.0,21.985125780075,34.32,0.036,2.71e-09,1171000000.0,205.0,25
15.0,21.98393583295,35.2,0.036,2.71e-09,1171000000.0,205.0,25
16.0,21.982745885825,36.08,0.036,2.71e-09,1171000000.0,205.0,25
17.0,21.9815559387,36.96,0.036,2.71e-09,1171000000.0,205.0,25
18.0,21.98224506376,37.84,0.036,2.71e-09,1171000000.0,205.0,25
19.0,21.98293418882,38.72,0.036,2.71e-09,1171000000.0,205.0,25
20.0,21.98362331388,39.6,0.036,2.71e-09,1171000000.0,205.0,25
21.0,21.98431243894,40.48,0.036,2.71e-09,1171000000.0,205.0,25
22.0,21.985001564,41.36,0.036,2.71e-09,1171000000.0,205.0,25
23.0,21.98569068906,42.24,0.036,2.71e-09,1171000000.0,205.0,25
24.0,21.98637981412,43.12,0.036,2.71e-09,1171000000.0,205.0,25
25.0,21.98706893918,44.0,0.036,2.71e-09,1171000000.0,205.0,25
26.0,21.98775806424,44.88,0.036,2.71e-09,1171000000.0,205.0,25
27.0,21.9884471893,45.76,0.036,2.71e-09,1171000000.0,205.0,25
28.0,21.99174556729,46.64,0.036,2.71e-09,1171000000.0,205.0,25
29.0,21.99504394528,47.52,0.036,2.71e-09,1171000000.0,205.0,25
30.0,21.99834232327,48.4,0.036,2.71e-09,1171000000.0,205.0,25
31.0,22.00164070126,49.28,0.036,2.71e-09,1171000000.0,205.0,25
32.0,22.00493907925,50.16,0.036,2.71e-09,1171000000.0,205.0,25
33.0,22.00823745724,51.04,0.036,2.71e-09,1171000000.0,205.0,25
34.0,22.01153583523,51.92,0.036,2.71e-09,1171000000.0,205.0,25
35.0,22.01483421322,52.8,0.036,2.71e-09,1171000000.0,205.0,25
36.0,22.01813259121,53.68,0.036,2.71e-09,1171000000.0,205.0,25
37.0,22.0214309692,54.56,0.036,2.71e-09,1171000000.0,205.0,25
38.0,22.02767429348,55.44,0.036,2.71e-09,1171000000.0,205.0,25
39.0,22.03391761776,56.32,0.036,2.71e-09,1171000000.0,205.0,25
40.0,22.04016094204,57.2,0.036,2.71e-09,1171000000.0,205.0,25
41.0,22.04640426632,58.08,0.036,2.71e-09,1171000000.0,205.0,25
42.0,22.0526475906,58.96,0.036,2.71e-09,1171000000.0,205.0,25
43.0,22.05889091488,59.84,0.036,2.71e-09,1171000000.0,205.0,25
44.0,22.06513423916,60.72,0.036,2.71e-09,1171000000.0,205.0,25
45.0,22.07137756344,61.6,0.036,2.71e-09,1171000000.0,205.0,25
46.0,22.07762088772,62.48,0.036,2.71e-09,1171000000.0,205.0,25
47.0,22.083864212,63.36,0.036,2.71e-09,1171000000.0,205.0,25
48.0,22.0922128677,64.24,0.036,2.71e-09,1171000000.0,205.0,25
49.0,22.1005615234,65.12,0.036,2.71e-09,1171000000.0,205.0,25
50.0,22.1089101791,66.0,0.036,2.71e-09,1171000000.0,205.0,25
51.0,22.1172588348,62.94,0.036,2.71e-09,1171000000.0,205.0,25
52.0,22.1256074905,62.88,0.036,2.71e-09,1171000000.0,205.0,25
53.0,22.1339561462,62.82,0.036,2.71e-09,1171000000.0,205.0,25
54.0,22.1423048019,62.76,0.036,2.71e-09,1171000000.0,205.0,25
55.0,22.1506534576,62.7,0.036,2.71e-09,1171000000.0,205.0,25
56.0,22.1590021133,62.64,0.036,2.71e-09,1171000000.0,205.0,25
57.0,22.167350769,62.58,0.036,2.71e-09,1171000000.0,205.0,25
58.0,22.17673435207,62.52,0.036,2.71e-09,1171000000.0,205.0,25
59.0,22.18611793514,62.46,0.036,2.71e-09,1171000000.0,205.0,25
60.0,22.19550151821,62.4,0.036,2.71e-09,1171000000.0,205.0,25
61.0,22.20488510128,62.34,0.036,2.71e-09,1171000000.0,205.0,25
62.0,22.21426868435,62.28,0.036,2.71e-09,1171000000.0,205.0,25
63.0,22.22365226742,62.22,0.036,2.71e-09,1171000000.0,205.0,25
64.0,22.23303585049,62.16,0.036,2.71e-09,1171000000.0,205.0,25
65.0,22.24241943356,62.1,0.036,2.71e-09,1171000000.0,205.0,25
66.0,22.25180301663,62.04,0.036,2.71e-09,1171000000.0,205.0,25
67.0,22.2611865997,61.98,0.036,2.71e-09,1171000000.0,205.0,25
68.0,22.27093181607,61.92,0.036,2.71e-09,1171000000.0,205.0,25
69.0,22.28067703244,61.86,0.036,2.71e-09,1171000000.0,205.0,25
70.0,22.29042224881,61.8,0.036,2.71e-09,1171000000.0,205.0,25
71.0,22.30016746518,61.74,0.036,2.71e-09,1171000000.0,205.0,25
72.0,22.30991268155,61.68,0.036,2.71e-09,1171000000.0,205.0,25
73.0,22.31965789792,61.62,0.036,2.71e-09,1171000000.0,205.0,25
74.0,22.32940311429,61.56,0.036,2.71e-09,1171000000.0,205.0,25
75.0,22.33914833066,61.5,0.036,2.71e-09,1171000000.0,205.0,25
76.0,22.34889354703,61.44,0.036,2.71e-09,1171000000.0,205.0,25
77.0,22.3586387634,61.38,0.036,2.71e-09,1171000000.0,205.0,25
78.0,22.36839637754,61.32,0.036,2.71e-09,1171000000.0,205.0,25
79.0,22.37815399168,61.26,0.036,2.71e-09,1171000000.0,205.0,25
80.0,22.38791160582,61.2,0.036,2.71e-09,1171000000.0,205.0,25
81.0,22.39766921996,61.14,0.036,2.71e-09,1171000000.0,205.0,25
82.0,22.4074268341,61.08,0.036,2.71e-09,1171000000.0,205.0,25
83.0,22.41718444824,61.02,0.036,2.71e-09,1171000000.0,205.0,25
84.0,22.42694206238,60.96,0.036,2.71e-09,1171000000.0,205.0,25
85.0,22.43669967652,60.9,0.036,2.71e-09,1171000000.0,205.0,25
86.0,22.44645729066,60.84,0.036,2.71e-09,1171000000.0,205.0,25
87.0,22.4562149048,60.78,0.036,2.71e-09,1171000000.0,205.0,25
88.0,22.46581745149,60.72,0.036,2.71e-09,1171000000.0,205.0,25
89.0,22.47541999818,60.66,0.036,2.71e-09,1171000000.0,205.0,25
90.0,22.48502254487,60.6,0.036,2.71e-09,1171000000.0,205.0,25
91.0,22.49462509156,60.54,0.036,2.71e-09,1171000000.0,205.0,25
92.0,22.50422763825,60.48,0.036,2.71e-09,1171000000.0,205.0,25
93.0,22.51383018494,60.42,0.036,2.71e-09,1171000000.0,205.0,25
94.0,22.52343273163,60.36,0.036,2.71e-09,1171000000.0,205.0,25
95.0,22.53303527832,60.3,0.036,2.71e-09,1171000000.0,205.0,25
96.0,22.54263782501,60.24,0.036,2.71e-09,1171000000.0,205.0,25
97.0,22.5522403717,60.18,0.036,2.71e-09,1171000000.0,205.0,25
98.0,22.56169109344,60.12,0.036,2.71e-09,1171000000.0,205.0,25
99.0,22.57114181518,60.06,0.036,2.71e-09,1171000000.0,205.0,25
100.0,22.58059253692,60.0,0.036,2.71e-09,1171000000.0,205.0,25
101.0,22.59004325866,60,0.036,2.71e-09,1171000000.0,205.0,25
102.0,22.5994939804,60,0.036,2.71e-09,1171000000.0,205.0,25
103.0,22.60894470214,60,0.036,2.71e-09,1171000000.0,205.0,25
104.0,22.61839542388,60,0.036,2.71e-09,1171000000.0,205.0,25
105.0,22.62784614562,60,0.036,2.71e-09,1171000000.0,205.0,25
106.0,22.63729686736,60,0.036,2.71e-09,1171000000.0,205.0,25
107.0,22.6467475891,60,0.036,2.71e-09,1171000000.0,205.0,25
108.0,22.65610332488,60,0.036,2.71e-09,1171000000.0,205.0,25
109.0,22.66545906066,60,0.036,2.71e-09,1171000000.0,205.0,25
110.0,22.67481479644,60,0.036,2.71e-09,1171000000.0,205.0,25
111.0,22.68417053222,60,0.036,2.71e-09,1171000000.0,205.0,25
112.0,22.693526268,60,0.036,2.71e-09,1171000000.0,205.0,25
113.0,22.70288200378,60,0.036,2.71e-09,1171000000.0,205.0,25
114.0,22.71223773956,60,0.036,2.71e-09,1171000000.0,205.0,25
115.0,22.72159347534,60,0.036,2.71e-09,1171000000.0,205.0,25
116.0,22.73094921112,60,0.036,2.71e-09,1171000000.0,205.0,25
117.0,22.7403049469,60,0.036,2.71e-09,1171000000.0,205.0,25
118.0,22.7496049881,60,0.036,2.71e-09,1171000000.0,205.0,25
119.0,22.7589050293,60,0.036,2.71e-09,1171000000.0,205.0,25
120.0,22.7682050705,60,0.036,2.71e-09,1171000000.0,205.0,25
121.0,22.7775051117,60,0.036,2.71e-09,1171000000.0,205.0,25
122.0,22.7868051529,60,0.036,2.71e-09,1171000000.0,205.0,25
123.0,22.7961051941,60,0.036,2.71e-09,1171000000.0,205.0,25
124.0,22.8054052353,60,0.036,2.71e-09,1171000000.0,205.0,25
125.0,22.8147052765,60,0.036,2.71e-09,1171000000.0,205.0,25
126.0,22.8240053177,60,0.036,2.71e-09,1171000000.0,205.0,25
127.0,22.8333053589,60,0.036,2.71e-09,1171000000.0,205.0,25
128.0,22.84257011415,60,0.036,2.71e-09,1171000000.0,205.0,25
129.0,22.8518348694,60,0.036,2.71e-09,1171000000.0,205.0,25
130.0,22.86109962465,60,0.036,2.71e-09,1171000000.0,205.0,25
131.0,22.8703643799,60,0.036,2.71e-09,1171000000.0,205.0,25
132.0,22.87962913515,60,0.036,2.71e-09,1171000000.0,205.0,25
133.0,22.8888938904,60,0.036,2.71e-09,1171000000.0,205.0,25
134.0,22.89815864565,60,0.036,2.71e-09,1171000000.0,205.0,25
135.0,22.9074234009,60,0.036,2.71e-09,1171000000.0,205.0,25
136.0,22.91668815615,60,0.036,2.71e-09,1171000000.0,205.0,25
137.0,22.9259529114,60,0.036,2.71e-09,1171000000.0,205.0,25
138.0,22.93519096377,60,0.036,2.71e-09,1171000000.0,205.0,25
139.0,22.94442901614,60,0.036,2.71e-09,1171000000.0,205.0,25
140.0,22.95366706851,60,0.036,2.71e-09,1171000000.0,205.0,25
141.0,22.96290512088,60,0.036,2.71e-09,1171000000.0,205.0,25
142.0,22.97214317325,60,0.036,2.71e-09,1171000000.0,205.0,25
143.0,22.98138122562,60,0.036,2.71e-09,1171000000.0,205.0,25
144.0,22.99061927799,60,0.036,2.71e-09,1171000000.0,205.0,25
145.0,22.99985733036,60,0.036,2.71e-09,1171000000.0,205.0,25
146.0,23.00909538273,60,0.036,2.71e-09,1171000000.0,205.0,25
147.0,23.0183334351,60,0.036,2.71e-09,1171000000.0,205.0,25
148.0,23.02754840855,60,0.036,2.71e-09,1171000000.0,205.0,25
149.0,23.036763382,60,0.036,2.71e-09,1171000000.0,205.0,25
150.0,23.04597835545,60,0.036,2.71e-09,1171000000.0,205.0,25
151.0,23.0551933289,60,0.036,2.71e-09,1171000000.0,205.0,25
152.0,23.06440830235,60,0.036,2.71e-09,1171000000.0,205.0,25
153.0,23.0736232758,60,0.036,2.71e-09,1171000000.0,205.0,25
154.0,23.08283824925,60,0.036,2.71e-09,1171000000.0,205.0,25
155.0,23.0920532227,60,0.036,2.71e-09,1171000000.0,205.0,25
156.0,23.10126819615,60,0.036,2.71e-09,1171000000.0,205.0,25
157.0,23.1104831696,60,0.036,2.71e-09,1171000000.0,205.0,25
158.0,23.11967659001,60,0.036,2.71e-09,1171000000.0,205.0,25
159.0,23.12887001042,60,0.036,2.71e-09,1171000000.0,205.0,25
160.0,23.13806343083,60,0.036,2.71e-09,1171000000.0,205.0,25
161.0,23.14725685124,60,0.036,2.71e-09,1171000000.0,205.0,25
162.0,23.15645027165,60,0.036,2.71e-09,1171000000.0,205.0,25
163.0,23.16564369206,60,0.036,2.71e-09,1171000000.0,205.0,25
164.0,23.17483711247,60,0.036,2.71e-09,1171000000.0,205.0,25
165.0,23.18403053288,60,0.036,2.71e-09,1171000000.0,205.0,25
166.0,23.19322395329,60,0.036,2.71e-09,1171000000.0,205.0,25
167.0,23.2024173737,60,0.036,2.71e-09,1171000000.0,205.0,25
168.0,23.21158962254,60,0.036,2.71e-09,1171000000.0,205.0,25
169.0,23.22076187138,60,0.036,2.71e-09,1171000000.0,205.0,25
170.0,23.22993412022,60,0.036,2.71e-09,1171000000.0,205.0,25
171.0,23.23910636906,60,0.036,2.71e-09,1171000000.0,205.0,25
172.0,23.2482786179,60,0.036,2.71e-09,1171000000.0,205.0,25
173.0,23.25745086674,60,0.036,2.71e-09,1171000000.0,205.0,25
174.0,23.26662311558,60,0.036,2.71e-09,1171000000.0,205.0,25
175.0,23.27579536442,60,0.036,2.71e-09,1171000000.0,205.0,25
176.0,23.28496761326,60,0.036,2.71e-09,1171000000.0,205.0,25
177.0,23.2941398621,60,0.036,2.71e-09,1171000000.0,205.0,25
178.0,23.30329074863,60,0.036,2.71e-09,1171000000.0,205.0,25
179.0,23.31244163516,60,0.036,2.71e-09,1171000000.0,205.0,25
180.0,23.32159252169,60,0.036,2.71e-09,1171000000.0,205.0,25
181.0,23.33074340822,60,0.036,2.71e-09,1171000000.0,205.0,25
182.0,23.33989429475,60,0.036,2.71e-09,1171000000.0,205.0,25
183.0,23.34904518128,60,0.036,2.71e-09,1171000000.0,205.0,25
184.0,23.35819606781,60,0.036,2.71e-09,1171000000.0,205.0,25
185.0,23.36734695434,60,0.036,2.71e-09,1171000000.0,205.0,25
186.0,23.37649784087,60,0.036,2.71e-09,1171000000.0,205.0,25
187.0,23.3856487274,60,0.036,2.71e-09,1171000000.0,205.0,25
188.0,23.39477844237,60,0.036,2.71e-09,1171000000.0,205.0,25
189.0,23.40390815734,60,0.036,2.71e-09,1171000000.0,205.0,25
190.0,23.41303787231,60,0.036,2.71e-09,1171000000.0,205.0,25
191.0,23.42216758728,60,0.036,2.71e-09,1171000000.0,205.0,25
192.0,23.43129730225,60,0.036,2.71e-09,1171000000.0,205.0,25
193.0,23.44042701722,60,0.036,2.71e-09,1171000000.0,205.0,25
194.0,23.44955673219,60,0.036,2.71e-09,1171000000.0,205.0,25
195.0,23.45868644716,60,0.036,2.71e-09,1171000000.0,205.0,25
196.0,23.46781616213,60,0.036,2.71e-09,1171000000.0,205.0,25
197.0,23.4769458771,60,0.036,2.71e-09,1171000000.0,205.0,25
198.0,23.48605403902,60,0.036,2.71e-09,1171000000.0,205.0,25
199.0,23.49516220094,60,0.036,2.71e-09,1171000000.0,205.0,25
200.0,23.50427036286,60,0.036,2.71e-09,1171000000.0,205.0,25
201.0,23.51337852478,60,0.036,2.71e-09,1171000000.0,205.0,25
202.0,23.5224866867,60,0.036,2.71e-09,1171000000.0,205.0,25
203.0,23.53159484862,60,0.036,2.71e-09,1171000000.0,205.0,25
204.0,23.54070301054,60,0.036,2.71e-09,1171000000.0,205.0,25
205.0,23.54981117246,60,0.036,2.71e-09,1171000000.0,205.0,25
206.0,23.55891933438,60,0.036,2.71e-09,1171000000.0,205.0,25
207.0,23.5680274963,60,0.036,2.71e-09,1171000000.0,205.0,25
208.0,23.57711391446,60,0.036,2.71e-09,1171000000.0,205.0,25
209.0,23.58620033262,60,0.036,2.71e-09,1171000000.0,205.0,25
210.0,23.59528675078,60,0.036,2.71e-09,1171000000.0,205.0,25
211.0,23.60437316894,60,0.036,2.71e-09,1171000000.0,205.0,25
212.0,23.6134595871,60,0.036,2.71e-09,1171000000.0,205.0,25
213.0,23.62254600526,60,0.036,2.71e-09,1171000000.0,205.0,25
214.0,23.63163242342,60,0.036,2.71e-09,1171000000.0,205.0,25
215.0,23.64071884158,60,0.036,2.71e-09,1171000000.0,205.0,25
216.0,23.64980525974,60,0.036,2.71e-09,1171000000.0,205.0,25
217.0,23.6588916779,60,0.036,2.71e-09,1171000000.0,205.0,25
218.0,23.66795654301,60,0.036,2.71e-09,1171000000.0,205.0,25
219.0,23.67702140812,60,0.036,2.71e-09,1171000000.0,205.0,25
220.0,23.68608627323,60,0.036,2.71e-09,1171000000.0,205.0,25
221.0,23.69515113834,60,0.036,2.71e-09,1171000000.0,205.0,25
222.0,23.70421600345,60,0.036,2.71e-09,1171000000.0,205.0,25
223.0,23.71328086856,60,0.036,2.71e-09,1171000000.0,205.0,25
224.0,23.72234573367,60,0.036,2.71e-09,1171000000.0,205.0,25
225.0,23.73141059878,60,0.036,2.71e-09,1171000000.0,205.0,25
226.0,23.74047546389,60,0.036,2.71e-09,1171000000.0,205.0,25
227.0,23.749540329,60,0.036,2.71e-09,1171000000.0,205.0,25
228.0,23.75858345034,60,0.036,2.71e-09,1171000000.0,205.0,25
229.0,23.76762657168,60,0.036,2.71e-09,1171000000.0,205.0,25
230.0,23.77666969302,60,0.036,2.71e-09,1171000000.0,205.0,25
231.0,23.78571281436,60,0.036,2.71e-09,1171000000.0,205.0,25
232.0,23.7947559357,60,0.036,2.71e-09,1171000000.0,205.0,25
233.0,23.80379905704,60,0.036,2.71e-09,1171000000.0,205.0,25
234.0,23.81284217838,60,0.036,2.71e-09,1171000000.0,205.0,25
235.0,23.82188529972,60,0.036,2.71e-09,1171000000.0,205.0,25
236.0,23.83092842106,60,0.036,2.71e-09,1171000000.0,205.0,25
237.0,23.8399715424,60,0.036,2.71e-09,1171000000.0,205.0,25
238.0,23.84899253849,60,0.036,2.71e-09,1171000000.0,205.0,25
239.0,23.85801353458,60,0.036,2.71e-09,1171000000.0,205.0,25
240.0,23.86703453067,60,0.036,2.71e-09,1171000000.0,205.0,25
241.0,23.87605552676,60,0.036,2.71e-09,1171000000.0,205.0,25
242.0,23.88507652285,60,0.036,2.71e-09,1171000000.0,205.0,25
243.0,23.89409751894,60,0.036,2.71e-09,1171000000.0,205.0,25
244.0,23.90311851503,60,0.036,2.71e-09,1171000000.0,205.0,25
245.0,23.91213951112,60,0.036,2.71e-09,1171000000.0,205.0,25
246.0,23.92116050721,60,0.036,2.71e-09,1171000000.0,205.0,25
247.0,23.9301815033,60,0.036,2.71e-09,1171000000.0,205.0,25
248.0,23.93918075562,60,0.036,2.71e-09,1171000000.0,205.0,25
249.0,23.94818000794,60,0.036,2.71e-09,1171000000.0,205.0,25
250.0,23.95717926026,60,0.036,2.71e-09,1171000000.0,205.0,25
251.0,23.96617851258,60,0.036,2.71e-09,1171000000.0,205.0,25
252.0,23.9751777649,60,0.036,2.71e-09,1171000000.0,205.0,25
253.0,23.98417701722,60,0.036,2.71e-09,1171000000.0,205.0,25
254.0,23.99317626954,60,0.036,2.71e-09,1171000000.0,205.0,25
255.0,24.00217552186,60,0.036,2.71e-09,1171000000.0,205.0,25
256.0,24.01117477418,60,0.036,2.71e-09,1171000000.0,205.0,25
257.0,24.0201740265,60,0.036,2.71e-09,1171000000.0,205.0,25
258.0,24.02915115357,60,0.036,2.71e-09,1171000000.0,205.0,25
259.0,24.03812828064,60,0.036,2.71e-09,1171000000.0,205.0,25
260.0,24.04710540771,60,0.036,2.71e-09,1171000000.0,205.0,25
261.0,24.05608253478,60,0.036,2.71e-09,1171000000.0,205.0,25
262.0,24.06505966185,60,0.036,2.71e-09,1171000000.0,205.0,25
263.0,24.07403678892,60,0.036,2.71e-09,1171000000.0,205.0,25
264.0,24.08301391599,60,0.036,2.71e-09,1171000000.0,205.0,25
265.0,24.09199104306,60,0.036,2.71e-09,1171000000.0,205.0,25
266.0,24.10096817013,60,0.036,2.71e-09,1171000000.0,205.0,25
267.0,24.1099452972,60,0.036,2.71e-09,1171000000.0,205.0,25
268.0,24.11890048977,60,0.036,2.71e-09,1171000000.0,205.0,25
269.0,24.12785568234,60,0.036,2.71e-09,1171000000.0,205.0,25
270.0,24.13681087491,60,0.036,2.71e-09,1171000000.0,205.0,25
271.0,24.14576606748,60,0.036,2.71e-09,1171000000.0,205.0,25
272.0,24.15472126005,60,0.036,2.71e-09,1171000000.0,205.0,25
273.0,24.16367645262,60,0.036,2.71e-09,1171000000.0,205.0,25
274.0,24.17263164519,60,0.036,2.71e-09,1171000000.0,205.0,25
275.0,24.18158683776,60,0.036,2.71e-09,1171000000.0,205.0,25
276.0,24.19054203033,60,0.036,2.71e-09,1171000000.0,205.0,25
277.0,24.1994972229,60,0.036,2.71e-09,1171000000.0,205.0,25
278.0,24.20843029022,60,0.036,2.71e-09,1171000000.0,205.0,25
279.0,24.21736335754,60,0.036,2.71e-09,1171000000.0,205.0,25
280.0,24.22629642486,60,0.036,2.71e-09,1171000000.0,205.0,25
281.0,24.23522949218,60,0.036,2.71e-09,1171000000.0,205.0,25
282.0,24.2441625595,60,0.036,2.71e-09,1171000000.0,205.0,25
283.0,24.25309562682,60,0.036,2.71e-09,1171000000.0,205.0,25
284.0,24.26202869414,60,0.036,2.71e-09,1171000000.0,205.0,25
285.0,24.27096176146,60,0.036,2.71e-09,1171000000.0,205.0,25
286.0,24.27989482878,60,0.036,2.71e-09,1171000000.0,205.0,25
287.0,24.2888278961,60,0.036,2.71e-09,1171000000.0,205.0,25
288.0,24.29773902891,60,0.036,2.71e-09,1171000000.0,205.0,25
289.0,24.30665016172,60,0.036,2.71e-09,1171000000.0,205.0,25
290.0,24.31556129453,60,0.036,2.71e-09,1171000000.0,205.0,25
291.0,24.32447242734,60,0.036,2.71e-09,1171000000.0,205.0,25
292.0,24.33338356015,60,0.036,2.71e-09,1171000000.0,205.0,25
293.0,24.34229469296,60,0.036,2.71e-09,1171000000.0,205.0,25
294.0,24.35120582577,60,0.036,2.71e-09,1171000000.0,205.0,25
295.0,24.36011695858,60,0.036,2.71e-09,1171000000.0,205.0,25
296.0,24.36902809139,60,0.036,2.71e-09,1171000000.0,205.0,25
297.0,24.3779392242,60,0.036,2.71e-09,1171000000.0,205.0,25
298.0,24.38682823177,60,0.036,2.71e-09,1171000000.0,205.0,25
299.0,24.39571723934,60,0.036,2.71e-09,1171000000.0,205.0,25
300.0,24.40460624691,60,0.036,2.71e-09,1171000000.0,205.0,25
301.0,24.41349525448,60,0.036,2.71e-09,1171000000.0,205.0,25
302.0,24.42238426205,60,0.036,2.71e-09,1171000000.0,205.0,25
303.0,24.43127326962,60,0.036,2.71e-09,1171000000.0,205.0,25
304.0,24.44016227719,60,0.036,2.71e-09,1171000000.0,205.0,25
305.0,24.44905128476,60,0.036,2.71e-09,1171000000.0,205.0,25
306.0,24.45794029233,60,0.036,2.71e-09,1171000000.0,205.0,25
307.0,24.4668292999,60,0.036,2.71e-09,1171000000.0,205.0,25
308.0,24.47569637296,60,0.036,2.71e-09,1171000000.0,205.0,25
309.0,24.48456344602,60,0.036,2.71e-09,1171000000.0,205.0,25
310.0,24.49343051908,60,0.036,2.71e-09,1171000000.0,205.0,25
311.0,24.50229759214,60,0.036,2.71e-09,1171000000.0,205.0,25
312.0,24.5111646652,60,0.036,2.71e-09,1171000000.0,205.0,25
313.0,24.52003173826,60,0.036,2.71e-09,1171000000.0,205.0,25
314.0,24.52889881132,60,0.036,2.71e-09,1171000000.0,205.0,25
315.0,24.53776588438,60,0.036,2.71e-09,1171000000.0,205.0,25
316.0,24.54663295744,60,0.036,2.71e-09,1171000000.0,205.0,25
317.0,24.5555000305,60,0.036,2.71e-09,1171000000.0,205.0,25
318.0,24.56434516905,60,0.036,2.71e-09,1171000000.0,205.0,25
319.0,24.5731903076,60,0.036,2.71e-09,1171000000.0,205.0,25
320.0,24.58203544615,60,0.036,2.71e-09,1171000000.0,205.0,25
321.0,24.5908805847,60,0.036,2.71e-09,1171000000.0,205.0,25
322.0,24.59972572325,60,0.036,2.71e-09,1171000000.0,205.0,25
323.0,24.6085708618,60,0.036,2.71e-09,1171000000.0,205.0,25
324.0,24.61741600035,60,0.036,2.71e-09,1171000000.0,205.0,25
325.0,24.6262611389,60,0.036,2.71e-09,1171000000.0,205.0,25
