time,T_int,T_ext_1,Film_Coef,Density,Specific_Heat,Thermal_Conductivity,Radius
1.0,21.9883728027,22.88,0.036,7.97e-09,736000000.0,152.0,15
2.0,21.9790706635,23.76,0.036,7.97e-09,736000000.0,152.0,15
3.0,21.9713287354,24.64,0.036,7.97e-09,736000000.0,152.0,15
4.0,21.965502739,25.52,0.036,7.97e-09,736000000.0,152.0,15
5.0,21.9596767426,26.4,0.036,7.97e-09,736000000.0,152.0,15
6.0,21.956409931225,27.28,0.036,7.97e-09,736000000.0,152.0,15
7.0,21.95314311985,28.16,0.036,7.97e-09,736000000.0,152.0,15
8.0,21.949876308475,29.04,0.036,7.97e-09,736000000.0,152.0,15
9.0,21.9466094971,29.92,0.036,7.97e-09,736000000.0,152.0,15
10.0,21.9474704265875,30.8,0.036,7.97e-09,736000000.0,152.0,15
11.0,21.948331356075,31.68,0.036,7.97e-09,736000000.0,152.0,15
12.0,21.9491922855625,32.56,0.036,7.97e-09,736000000.0,152.0,15
13.0,21.95005321505,33.44,0.036,7.97e-09,736000000.0,152.0,15
14.0,21.9509141445375,34.32,0.036,7.97e-09,736000000.0,152.0,15
15.0,21.951775074025,35.2,0.036,7.97e-09,736000000.0,152.0,15
16.0,21.9526360035125,36.08,0.036,7.97e-09,736000000.0,152.0,15
17.0,21.953496933,36.96,0.036,7.97e-09,736000000.0,152.0,15
18.0,21.95918922426,37.84,0.036,7.97e-09,736000000.0,152.0,15
19.0,21.96488151552,38.72,0.036,7.97e-09,736000000.0,152.0,15
20.0,21.97057380678,39.6,0.036,7.97e-09,736000000.0,152.0,15
21.0,21.97626609804,40.48,0.036,7.97e-09,736000000.0,152.0,15
22.0,21.9819583893,41.36,0.036,7.97e-09,736000000.0,152.0,15
23.0,21.98765068056,42.24,0.036,7.97e-09,736000000.0,152.0,15
24.0,21.99334297182,43.12,0.036,7.97e-09,736000000.0,152.0,15
25.0,21.99903526308,44.0,0.036,7.97e-09,736000000.0,152.0,15
26.0,22.00472755434,44.88,0.036,7.97e-09,736000000.0,152.0,15
27.0,22.0104198456,45.76,0.036,7.97e-09,736000000.0,152.0,15
28.0,22.0208627701,46.64,0.036,7.97e-09,736000000.0,152.0,15
29.0,22.0313056946,47.52,0.036,7.97e-09,736000000.0,152.0,15
30.0,22.0417486191,48.4,0.036,7.97e-09,736000000.0,152.0,15
31.0,22.0521915436,49.28,0.036,7.97e-09,736000000.0,152.0,15
32.0,22.0626344681,50.16,0.036,7.97e-09,736000000.0,152.0,15
33.0,22.0730773926,51.04,0.036,7.97e-09,736000000.0,152.0,15
34.0,22.0835203171,51.92,0.036,7.97e-09,736000000.0,152.0,15
35.0,22.0939632416,52.8,0.036,7.97e-09,736000000.0,152.0,15
36.0,22.1044061661,53.68,0.036,7.97e-09,736000000.0,152.0,15
37.0,22.1148490906,54.56,0.036,7.97e-09,736000000.0,152.0,15
38.0,22.13002090456,55.44,0.036,7.97e-09,736000000.0,152.0,15
39.0,22.14519271852,56.32,0.036,7.97e-09,736000000.0,152.0,15
40.0,22.16036453248,57.2,0.036,7.97e-09,736000000.0,152.0,15
41.0,22.17553634644,58.08,0.036,7.97e-09,736000000.0,152.0,15
42.0,22.1907081604,58.96,0.036,7.97e-09,736000000.0,152.0,15
43.0,22.20587997436,59.84,0.036,7.97e-09,736000000.0,152.0,15
44.0,22.22105178832,60.72,0.036,7.97e-09,736000000.0,152.0,15
45.0,22.23622360228,61.6,0.036,7.97e-09,736000000.0,152.0,15
46.0,22.25139541624,62.48,0.036,7.97e-09,736000000.0,152.0,15
47.0,22.2665672302,63.36,0.036,7.97e-09,736000000.0,152.0,15
48.0,22.28233509062,64.24,0.036,7.97e-09,736000000.0,152.0,15
49.0,22.29810295104,65.12,0.036,7.97e-09,736000000.0,152.0,15
50.0,22.31387081146,66.0,0.036,7.97e-09,736000000.0,152.0,15
51.0,22.32963867188,62.94,0.036,7.97e-09,736000000.0,152.0,15
52.0,22.3454065323,62.88,0.036,7.97e-09,736000000.0,152.0,15
53.0,22.36117439272,62.82,0.036,7.97e-09,736000000.0,152.0,15
54.0,22.37694225314,62.76,0.036,7.97e-09,736000000.0,152.0,15
55.0,22.39271011356,62.7,0.036,7.97e-09,736000000.0,152.0,15
56.0,22.40847797398,62.64,0.036,7.97e-09,736000000.0,152.0,15
57.0,22.4242458344,62.58,0.036,7.97e-09,736000000.0,152.0,15
58.0,22.43925056462,62.52,0.036,7.97e-09,736000000.0,152.0,15
59.0,22.45425529484,62.46,0.036,7.97e-09,736000000.0,152.0,15
60.0,22.46926002506,62.4,0.036,7.97e-09,736000000.0,152.0,15
61.0,22.48426475528,62.34,0.036,7.97e-09,736000000.0,152.0,15
62.0,22.4992694855,62.28,0.036,7.97e-09,736000000.0,152.0,15
63.0,22.51427421572,62.22,0.036,7.97e-09,736000000.0,152.0,15
64.0,22.52927894594,62.16,0.036,7.97e-09,736000000.0,152.0,15
65.0,22.54428367616,62.1,0.036,7.97e-09,736000000.0,152.0,15
66.0,22.55928840638,62.04,0.036,7.97e-09,736000000.0,152.0,15
67.0,22.5742931366,61.98,0.036,7.97e-09,736000000.0,152.0,15
68.0,22.58878116608,61.92,0.036,7.97e-09,736000000.0,152.0,15
69.0,22.60326919556,61.86,0.036,7.97e-09,736000000.0,152.0,15
70.0,22.61775722504,61.8,0.036,7.97e-09,736000000.0,152.0,15
71.0,22.63224525452,61.74,0.036,7.97e-09,736000000.0,152.0,15
72.0,22.646733284,61.68,0.036,7.97e-09,736000000.0,152.0,15
73.0,22.66122131348,61.62,0.036,7.97e-09,736000000.0,152.0,15
74.0,22.67570934296,61.56,0.036,7.97e-09,736000000.0,152.0,15
75.0,22.69019737244,61.5,0.036,7.97e-09,736000000.0,152.0,15
76.0,22.70468540192,61.44,0.036,7.97e-09,736000000.0,152.0,15
77.0,22.7191734314,61.38,0.036,7.97e-09,736000000.0,152.0,15
78.0,22.7331867218,61.32,0.036,7.97e-09,736000000.0,152.0,15
79.0,22.7472000122,61.26,0.036,7.97e-09,736000000.0,152.0,15
80.0,22.7612133026,61.2,0.036,7.97e-09,736000000.0,152.0,15
81.0,22.775226593,61.14,0.036,7.97e-09,736000000.0,152.0,15
82.0,22.7892398834,61.08,0.036,7.97e-09,736000000.0,152.0,15
83.0,22.8032531738,61.02,0.036,7.97e-09,736000000.0,152.0,15
84.0,22.8172664642,60.96,0.036,7.97e-09,736000000.0,152.0,15
85.0,22.8312797546,60.9,0.036,7.97e-09,736000000.0,152.0,15
86.0,22.845293045,60.84,0.036,7.97e-09,736000000.0,152.0,15
87.0,22.8593063354,60.78,0.036,7.97e-09,736000000.0,152.0,15
88.0,22.87284965511,60.72,0.036,7.97e-09,736000000.0,152.0,15
89.0,22.88639297482,60.66,0.036,7.97e-09,736000000.0,152.0,15
90.0,22.89993629453,60.6,0.036,7.97e-09,736000000.0,152.0,15
91.0,22.91347961424,60.54,0.036,7.97e-09,736000000.0,152.0,15
92.0,22.92702293395,60.48,0.036,7.97e-09,736000000.0,152.0,15
93.0,22.94056625366,60.42,0.036,7.97e-09,736000000.0,152.0,15
94.0,22.95410957337,60.36,0.036,7.97e-09,736000000.0,152.0,15
95.0,22.96765289308,60.3,0.036,7.97e-09,736000000.0,152.0,15
96.0,22.98119621279,60.24,0.036,7.97e-09,736000000.0,152.0,15
97.0,22.9947395325,60.18,0.036,7.97e-09,736000000.0,152.0,15
98.0,23.00815448764,60.12,0.036,7.97e-09,736000000.0,152.0,15
99.0,23.02156944278,60.06,0.036,7.97e-09,736000000.0,152.0,15
100.0,23.03498439792,60.0,0.036,7.97e-09,736000000.0,152.0,15
101.0,23.04839935306,60,0.036,7.97e-09,736000000.0,152.0,15
102.0,23.0618143082,60,0.036,7.97e-09,736000000.0,152.0,15
103.0,23.07522926334,60,0.036,7.97e-09,736000000.0,152.0,15
104.0,23.08864421848,60,0.036,7.97e-09,736000000.0,152.0,15
105.0,23.10205917362,60,0.036,7.97e-09,736000000.0,152.0,15
106.0,23.11547412876,60,0.036,7.97e-09,736000000.0,152.0,15
107.0,23.1288890839,60,0.036,7.97e-09,736000000.0,152.0,15
108.0,23.14228553775,60,0.036,7.97e-09,736000000.0,152.0,15
109.0,23.1556819916,60,0.036,7.97e-09,736000000.0,152.0,15
110.0,23.16907844545,60,0.036,7.97e-09,736000000.0,152.0,15
111.0,23.1824748993,60,0.036,7.97e-09,736000000.0,152.0,15
112.0,23.19587135315,60,0.036,7.97e-09,736000000.0,152.0,15
113.0,23.209267807,60,0.036,7.97e-09,736000000.0,152.0,15
114.0,23.22266426085,60,0.036,7.97e-09,736000000.0,152.0,15
115.0,23.2360607147,60,0.036,7.97e-09,736000000.0,152.0,15
116.0,23.24945716855,60,0.036,7.97e-09,736000000.0,152.0,15
117.0,23.2628536224,60,0.036,7.97e-09,736000000.0,152.0,15
118.0,23.2762086868,60,0.036,7.97e-09,736000000.0,152.0,15
119.0,23.2895637512,60,0.036,7.97e-09,736000000.0,152.0,15
120.0,23.3029188156,60,0.036,7.97e-09,736000000.0,152.0,15
121.0,23.31627388,60,0.036,7.97e-09,736000000.0,152.0,15
122.0,23.3296289444,60,0.036,7.97e-09,736000000.0,152.0,15
123.0,23.3429840088,60,0.036,7.97e-09,736000000.0,152.0,15
124.0,23.3563390732,60,0.036,7.97e-09,736000000.0,152.0,15
125.0,23.3696941376,60,0.036,7.97e-09,736000000.0,152.0,15
126.0,23.383049202,60,0.036,7.97e-09,736000000.0,152.0,15
127.0,23.3964042664,60,0.036,7.97e-09,736000000.0,152.0,15
128.0,23.40971298222,60,0.036,7.97e-09,736000000.0,152.0,15
129.0,23.42302169804,60,0.036,7.97e-09,736000000.0,152.0,15
130.0,23.43633041386,60,0.036,7.97e-09,736000000.0,152.0,15
131.0,23.44963912968,60,0.036,7.97e-09,736000000.0,152.0,15
132.0,23.4629478455,60,0.036,7.97e-09,736000000.0,152.0,15
133.0,23.47625656132,60,0.036,7.97e-09,736000000.0,152.0,15
134.0,23.48956527714,60,0.036,7.97e-09,736000000.0,152.0,15
135.0,23.50287399296,60,0.036,7.97e-09,736000000.0,152.0,15
136.0,23.51618270878,60,0.036,7.97e-09,736000000.0,152.0,15
137.0,23.5294914246,60,0.036,7.97e-09,736000000.0,152.0,15
138.0,23.54275264744,60,0.036,7.97e-09,736000000.0,152.0,15
139.0,23.55601387028,60,0.036,7.97e-09,736000000.0,152.0,15
140.0,23.56927509312,60,0.036,7.97e-09,736000000.0,152.0,15
141.0,23.58253631596,60,0.036,7.97e-09,736000000.0,152.0,15
142.0,23.5957975388,60,0.036,7.97e-09,736000000.0,152.0,15
143.0,23.60905876164,60,0.036,7.97e-09,736000000.0,152.0,15
144.0,23.62231998448,60,0.036,7.97e-09,736000000.0,152.0,15
145.0,23.63558120732,60,0.036,7.97e-09,736000000.0,152.0,15
146.0,23.64884243016,60,0.036,7.97e-09,736000000.0,152.0,15
147.0,23.662103653,60,0.036,7.97e-09,736000000.0,152.0,15
148.0,23.67531681065,60,0.036,7.97e-09,736000000.0,152.0,15
149.0,23.6885299683,60,0.036,7.97e-09,736000000.0,152.0,15
150.0,23.70174312595,60,0.036,7.97e-09,736000000.0,152.0,15
151.0,23.7149562836,60,0.036,7.97e-09,736000000.0,152.0,15
152.0,23.72816944125,60,0.036,7.97e-09,736000000.0,152.0,15
153.0,23.7413825989,60,0.036,7.97e-09,736000000.0,152.0,15
154.0,23.75459575655,60,0.036,7.97e-09,736000000.0,152.0,15
155.0,23.7678089142,60,0.036,7.97e-09,736000000.0,152.0,15
156.0,23.78102207185,60,0.036,7.97e-09,736000000.0,152.0,15
157.0,23.7942352295,60,0.036,7.97e-09,736000000.0,152.0,15
158.0,23.8074005127,60,0.036,7.97e-09,736000000.0,152.0,15
159.0,23.8205657959,60,0.036,7.97e-09,736000000.0,152.0,15
160.0,23.8337310791,60,0.036,7.97e-09,736000000.0,152.0,15
161.0,23.8468963623,60,0.036,7.97e-09,736000000.0,152.0,15
162.0,23.8600616455,60,0.036,7.97e-09,736000000.0,152.0,15
163.0,23.8732269287,60,0.036,7.97e-09,736000000.0,152.0,15
164.0,23.8863922119,60,0.036,7.97e-09,736000000.0,152.0,15
165.0,23.8995574951,60,0.036,7.97e-09,736000000.0,152.0,15
166.0,23.9127227783,60,0.036,7.97e-09,736000000.0,152.0,15
167.0,23.9258880615,60,0.036,7.97e-09,736000000.0,152.0,15
168.0,23.93900566099,60,0.036,7.97e-09,736000000.0,152.0,15
169.0,23.95212326048,60,0.036,7.97e-09,736000000.0,152.0,15
170.0,23.96524085997,60,0.036,7.97e-09,736000000.0,152.0,15
171.0,23.97835845946,60,0.036,7.97e-09,736000000.0,152.0,15
172.0,23.99147605895,60,0.036,7.97e-09,736000000.0,152.0,15
173.0,24.00459365844,60,0.036,7.97e-09,736000000.0,152.0,15
174.0,24.01771125793,60,0.036,7.97e-09,736000000.0,152.0,15
175.0,24.03082885742,60,0.036,7.97e-09,736000000.0,152.0,15
176.0,24.04394645691,60,0.036,7.97e-09,736000000.0,152.0,15
177.0,24.0570640564,60,0.036,7.97e-09,736000000.0,152.0,15
178.0,24.07013397217,60,0.036,7.97e-09,736000000.0,152.0,15
179.0,24.08320388794,60,0.036,7.97e-09,736000000.0,152.0,15
180.0,24.09627380371,60,0.036,7.97e-09,736000000.0,152.0,15
181.0,24.10934371948,60,0.036,7.97e-09,736000000.0,152.0,15
182.0,24.12241363525,60,0.036,7.97e-09,736000000.0,152.0,15
183.0,24.13548355102,60,0.036,7.97e-09,736000000.0,152.0,15
184.0,24.14855346679,60,0.036,7.97e-09,736000000.0,152.0,15
185.0,24.16162338256,60,0.036,7.97e-09,736000000.0,152.0,15
186.0,24.17469329833,60,0.036,7.97e-09,736000000.0,152.0,15
187.0,24.1877632141,60,0.036,7.97e-09,736000000.0,152.0,15
188.0,24.20078544616,60,0.036,7.97e-09,736000000.0,152.0,15
189.0,24.21380767822,60,0.036,7.97e-09,736000000.0,152.0,15
190.0,24.22682991028,60,0.036,7.97e-09,736000000.0,152.0,15
191.0,24.23985214234,60,0.036,7.97e-09,736000000.0,152.0,15
192.0,24.2528743744,60,0.036,7.97e-09,736000000.0,152.0,15
193.0,24.26589660646,60,0.036,7.97e-09,736000000.0,152.0,15
194.0,24.27891883852,60,0.036,7.97e-09,736000000.0,152.0,15
195.0,24.29194107058,60,0.036,7.97e-09,736000000.0,152.0,15
196.0,24.30496330264,60,0.036,7.97e-09,736000000.0,152.0,15
197.0,24.3179855347,60,0.036,7.97e-09,736000000.0,152.0,15
198.0,24.33096046451,60,0.036,7.97e-09,736000000.0,152.0,15
199.0,24.34393539432,60,0.036,7.97e-09,736000000.0,152.0,15
200.0,24.35691032413,60,0.036,7.97e-09,736000000.0,152.0,15
201.0,24.36988525394,60,0.036,7.97e-09,736000000.0,152.0,15
202.0,24.38286018375,60,0.036,7.97e-09,736000000.0,152.0,15
203.0,24.39583511356,60,0.036,7.97e-09,736000000.0,152.0,15
204.0,24.40881004337,60,0.036,7.97e-09,736000000.0,152.0,15
205.0,24.42178497318,60,0.036,7.97e-09,736000000.0,152.0,15
206.0,24.43475990299,60,0.036,7.97e-09,736000000.0,152.0,15
207.0,24.4477348328,60,0.036,7.97e-09,736000000.0,152.0,15
208.0,24.46066265109,60,0.036,7.97e-09,736000000.0,152.0,15
209.0,24.47359046938,60,0.036,7.97e-09,736000000.0,152.0,15
210.0,24.48651828767,60,0.036,7.97e-09,736000000.0,152.0,15
211.0,24.49944610596,60,0.036,7.97e-09,736000000.0,152.0,15
212.0,24.51237392425,60,0.036,7.97e-09,736000000.0,152.0,15
213.0,24.52530174254,60,0.036,7.97e-09,736000000.0,152.0,15
214.0,24.53822956083,60,0.036,7.97e-09,736000000.0,152.0,15
215.0,24.55115737912,60,0.036,7.97e-09,736000000.0,152.0,15
216.0,24.56408519741,60,0.036,7.97e-09,736000000.0,152.0,15
217.0,24.5770130157,60,0.036,7.97e-09,736000000.0,152.0,15
218.0,24.58989391323,60,0.036,7.97e-09,736000000.0,152.0,15
219.0,24.60277481076,60,0.036,7.97e-09,736000000.0,152.0,15
220.0,24.61565570829,60,0.036,7.97e-09,736000000.0,152.0,15
221.0,24.62853660582,60,0.036,7.97e-09,736000000.0,152.0,15
222.0,24.64141750335,60,0.036,7.97e-09,736000000.0,152.0,15
223.0,24.65429840088,60,0.036,7.97e-09,736000000.0,152.0,15
224.0,24.66717929841,60,0.036,7.97e-09,736000000.0,152.0,15
225.0,24.68006019594,60,0.036,7.97e-09,736000000.0,152.0,15
226.0,24.69294109347,60,0.036,7.97e-09,736000000.0,152.0,15
227.0,24.705821991,60,0.036,7.97e-09,736000000.0,152.0,15
228.0,24.71865596774,60,0.036,7.97e-09,736000000.0,152.0,15
229.0,24.73148994448,60,0.036,7.97e-09,736000000.0,152.0,15
230.0,24.74432392122,60,0.036,7.97e-09,736000000.0,152.0,15
231.0,24.75715789796,60,0.036,7.97e-09,736000000.0,152.0,15
232.0,24.7699918747,60,0.036,7.97e-09,736000000.0,152.0,15
233.0,24.78282585144,60,0.036,7.97e-09,736000000.0,152.0,15
234.0,24.79565982818,60,0.036,7.97e-09,736000000.0,152.0,15
235.0,24.80849380492,60,0.036,7.97e-09,736000000.0,152.0,15
236.0,24.82132778166,60,0.036,7.97e-09,736000000.0,152.0,15
237.0,24.8341617584,60,0.036,7.97e-09,736000000.0,152.0,15
238.0,24.84694900511,60,0.036,7.97e-09,736000000.0,152.0,15
239.0,24.85973625182,60,0.036,7.97e-09,736000000.0,152.0,15
240.0,24.87252349853,60,0.036,7.97e-09,736000000.0,152.0,15
241.0,24.88531074524,60,0.036,7.97e-09,736000000.0,152.0,15
242.0,24.89809799195,60,0.036,7.97e-09,736000000.0,152.0,15
243.0,24.91088523866,60,0.036,7.97e-09,736000000.0,152.0,15
244.0,24.92367248537,60,0.036,7.97e-09,736000000.0,152.0,15
245.0,24.93645973208,60,0.036,7.97e-09,736000000.0,152.0,15
246.0,24.94924697879,60,0.036,7.97e-09,736000000.0,152.0,15
247.0,24.9620342255,60,0.036,7.97e-09,736000000.0,152.0,15
248.0,24.97477512363,60,0.036,7.97e-09,736000000.0,152.0,15
249.0,24.98751602176,60,0.036,7.97e-09,736000000.0,152.0,15
250.0,25.00025691989,60,0.036,7.97e-09,736000000.0,152.0,15
251.0,25.01299781802,60,0.036,7.97e-09,736000000.0,152.0,15
252.0,25.02573871615,60,0.036,7.97e-09,736000000.0,152.0,15
253.0,25.03847961428,60,0.036,7.97e-09,736000000.0,152.0,15
254.0,25.05122051241,60,0.036,7.97e-09,736000000.0,152.0,15
255.0,25.06396141054,60,0.036,7.97e-09,736000000.0,152.0,15
256.0,25.07670230867,60,0.036,7.97e-09,736000000.0,152.0,15
257.0,25.0894432068,60,0.036,7.97e-09,736000000.0,152.0,15
258.0,25.10213756562,60,0.036,7.97e-09,736000000.0,152.0,15
259.0,25.11483192444,60,0.036,7.97e-09,736000000.0,152.0,15
260.0,25.12752628326,60,0.036,7.97e-09,736000000.0,152.0,15
261.0,25.14022064208,60,0.036,7.97e-09,736000000.0,152.0,15
262.0,25.1529150009,60,0.036,7.97e-09,736000000.0,152.0,15
263.0,25.16560935972,60,0.036,7.97e-09,736000000.0,152.0,15
264.0,25.17830371854,60,0.036,7.97e-09,736000000.0,152.0,15
265.0,25.19099807736,60,0.036,7.97e-09,736000000.0,152.0,15
266.0,25.20369243618,60,0.036,7.97e-09,736000000.0,152.0,15
267.0,25.216386795,60,0.036,7.97e-09,736000000.0,152.0,15
268.0,25.22903518673,60,0.036,7.97e-09,736000000.0,152.0,15
269.0,25.24168357846,60,0.036,7.97e-09,736000000.0,152.0,15
270.0,25.25433197019,60,0.036,7.97e-09,736000000.0,152.0,15
271.0,25.26698036192,60,0.036,7.97e-09,736000000.0,152.0,15
272.0,25.27962875365,60,0.036,7.97e-09,736000000.0,152.0,15
273.0,25.29227714538,60,0.036,7.97e-09,736000000.0,152.0,15
274.0,25.30492553711,60,0.036,7.97e-09,736000000.0,152.0,15
275.0,25.31757392884,60,0.036,7.97e-09,736000000.0,152.0,15
276.0,25.33022232057,60,0.036,7.97e-09,736000000.0,152.0,15
277.0,25.3428707123,60,0.036,7.97e-09,736000000.0,152.0,15
278.0,25.35547313692,60,0.036,7.97e-09,736000000.0,152.0,15
279.0,25.36807556154,60,0.036,7.97e-09,736000000.0,152.0,15
280.0,25.38067798616,60,0.036,7.97e-09,736000000.0,152.0,15
281.0,25.39328041078,60,0.036,7.97e-09,736000000.0,152.0,15
282.0,25.4058828354,60,0.036,7.97e-09,736000000.0,152.0,15
283.0,25.41848526002,60,0.036,7.97e-09,736000000.0,152.0,15
284.0,25.43108768464,60,0.036,7.97e-09,736000000.0,152.0,15
285.0,25.44369010926,60,0.036,7.97e-09,736000000.0,152.0,15
286.0,25.45629253388,60,0.036,7.97e-09,736000000.0,152.0,15
287.0,25.4688949585,60,0.036,7.97e-09,736000000.0,152.0,15
288.0,25.48145141602,60,0.036,7.97e-09,736000000.0,152.0,15
289.0,25.49400787354,60,0.036,7.97e-09,736000000.0,152.0,15
290.0,25.50656433106,60,0.036,7.97e-09,736000000.0,152.0,15
291.0,25.51912078858,60,0.036,7.97e-09,736000000.0,152.0,15
292.0,25.5316772461,60,0.036,7.97e-09,736000000.0,152.0,15
293.0,25.54423370362,60,0.036,7.97e-09,736000000.0,152.0,15
294.0,25.55679016114,60,0.036,7.97e-09,736000000.0,152.0,15
295.0,25.56934661866,60,0.036,7.97e-09,736000000.0,152.0,15
296.0,25.58190307618,60,0.036,7.97e-09,736000000.0,152.0,15
297.0,25.5944595337,60,0.036,7.97e-09,736000000.0,152.0,15
298.0,25.60697040559,60,0.036,7.97e-09,736000000.0,152.0,15
299.0,25.61948127748,60,0.036,7.97e-09,736000000.0,152.0,15
300.0,25.63199214937,60,0.036,7.97e-09,736000000.0,152.0,15
301.0,25.64450302126,60,0.036,7.97e-09,736000000.0,152.0,15
302.0,25.65701389315,60,0.036,7.97e-09,736000000.0,152.0,15
303.0,25.66952476504,60,0.036,7.97e-09,736000000.0,152.0,15
304.0,25.68203563693,60,0.036,7.97e-09,736000000.0,152.0,15
305.0,25.69454650882,60,0.036,7.97e-09,736000000.0,152.0,15
306.0,25.70705738071,60,0.036,7.97e-09,736000000.0,152.0,15
307.0,25.7195682526,60,0.036,7.97e-09,736000000.0,152.0,15
308.0,25.73203353885,60,0.036,7.97e-09,736000000.0,152.0,15
309.0,25.7444988251,60,0.036,7.97e-09,736000000.0,152.0,15
310.0,25.75696411135,60,0.036,7.97e-09,736000000.0,152.0,15
311.0,25.7694293976,60,0.036,7.97e-09,736000000.0,152.0,15
312.0,25.78189468385,60,0.036,7.97e-09,736000000.0,152.0,15
313.0,25.7943599701,60,0.036,7.97e-09,736000000.0,152.0,15
314.0,25.80682525635,60,0.036,7.97e-09,736000000.0,152.0,15
315.0,25.8192905426,60,0.036,7.97e-09,736000000.0,152.0,15
316.0,25.83175582885,60,0.036,7.97e-09,736000000.0,152.0,15
317.0,25.8442211151,60,0.036,7.97e-09,736000000.0,152.0,15
318.0,25.85664119719,60,0.036,7.97e-09,736000000.0,152.0,15
319.0,25.86906127928,60,0.036,7.97e-09,736000000.0,152.0,15
320.0,25.88148136137,60,0.036,7.97e-09,736000000.0,152.0,15
321.0,25.89390144346,60,0.036,7.97e-09,736000000.0,152.0,15
322.0,25.90632152555,60,0.036,7.97e-09,736000000.0,152.0,15
323.0,25.91874160764,60,0.036,7.97e-09,736000000.0,152.0,15
324.0,25.93116168973,60,0.036,7.97e-09,736000000.0,152.0,15
325.0,25.94358177182,60,0.036,7.97e-09,736000000.0,152.0,15
326.0,25.95600185391,60,0.036,7.97e-09,736000000.0,152.0,15
327.0,25.968421936,60,0.036,7.97e-09,736000000.0,152.0,15
328.0,25.98079681393,60,0.036,7.97e-09,736000000.0,152.0,15
329.0,25.99317169186,60,0.036,7.97e-09,736000000.0,152.0,15
330.0,26.00554656979,60,0.036,7.97e-09,736000000.0,152.0,15
