time,T_int,T_ext_1,Film_Coef,Density,Specific_Heat,Thermal_Conductivity,Radius
1.0,21.9785461426,22.88,0.036,7.97e-09,336000000.0,72.0,15
2.0,21.961227417,23.76,0.036,7.97e-09,336000000.0,72.0,15
3.0,21.9468154907,24.64,0.036,7.97e-09,336000000.0,72.0,15
4.0,21.9360771179,25.52,0.036,7.97e-09,336000000.0,72.0,15
5.0,21.9253387451,26.4,0.036,7.97e-09,336000000.0,72.0,15
6.0,21.91945695875,27.28,0.036,7.97e-09,336000000.0,72.0,15
7.0,21.9135751724,28.16,0.036,7.97e-09,336000000.0,72.0,15
8.0,21.90769338605,29.04,0.036,7.97e-09,336000000.0,72.0,15
9.0,21.9018115997,29.92,0.036,7.97e-09,336000000.0,72.0,15
10.0,21.9035525321625,30.8,0.036,7.97e-09,336000000.0,72.0,15
11.0,21.905293464625,31.68,0.036,7.97e-09,336000000.0,72.0,15
12.0,21.9070343970875,32.56,0.036,7.97e-09,336000000.0,72.0,15
13.0,21.90877532955,33.44,0.036,7.97e-09,336000000.0,72.0,15
14.0,21.9105162620125,34.32,0.036,7.97e-09,336000000.0,72.0,15
15.0,21.912257194475,35.2,0.036,7.97e-09,336000000.0,72.0,15
16.0,21.9139981269375,36.08,0.036,7.97e-09,336000000.0,72.0,15
17.0,21.9157390594,36.96,0.036,7.97e-09,336000000.0,72.0,15
18.0,21.92623844142,37.84,0.036,7.97e-09,336000000.0,72.0,15
19.0,21.93673782344,38.72,0.036,7.97e-09,336000000.0,72.0,15
20.0,21.94723720546,39.6,0.036,7.97e-09,336000000.0,72.0,15
21.0,21.95773658748,40.48,0.036,7.97e-09,336000000.0,72.0,15
22.0,21.9682359695,41.36,0.036,7.97e-09,336000000.0,72.0,15
23.0,21.97873535152,42.24,0.036,7.97e-09,336000000.0,72.0,15
24.0,21.98923473354,43.12,0.036,7.97e-09,336000000.0,72.0,15
25.0,21.99973411556,44.0,0.036,7.97e-09,336000000.0,72.0,15
26.0,22.01023349758,44.88,0.036,7.97e-09,336000000.0,72.0,15
27.0,22.0207328796,45.76,0.036,7.97e-09,336000000.0,72.0,15
28.0,22.0397607803,46.64,0.036,7.97e-09,336000000.0,72.0,15
29.0,22.058788681,47.52,0.036,7.97e-09,336000000.0,72.0,15
30.0,22.0778165817,48.4,0.036,7.97e-09,336000000.0,72.0,15
31.0,22.0968444824,49.28,0.036,7.97e-09,336000000.0,72.0,15
32.0,22.1158723831,50.16,0.036,7.97e-09,336000000.0,72.0,15
33.0,22.1349002838,51.04,0.036,7.97e-09,336000000.0,72.0,15
34.0,22.1539281845,51.92,0.036,7.97e-09,336000000.0,72.0,15
35.0,22.1729560852,52.8,0.036,7.97e-09,336000000.0,72.0,15
36.0,22.1919839859,53.68,0.036,7.97e-09,336000000.0,72.0,15
37.0,22.2110118866,54.56,0.036,7.97e-09,336000000.0,72.0,15
38.0,22.238479805,55.44,0.036,7.97e-09,336000000.0,72.0,15
39.0,22.2659477234,56.32,0.036,7.97e-09,336000000.0,72.0,15
40.0,22.2934156418,57.2,0.036,7.97e-09,336000000.0,72.0,15
41.0,22.3208835602,58.08,0.036,7.97e-09,336000000.0,72.0,15
42.0,22.3483514786,58.96,0.036,7.97e-09,336000000.0,72.0,15
43.0,22.375819397,59.84,0.036,7.97e-09,336000000.0,72.0,15
44.0,22.4032873154,60.72,0.036,7.97e-09,336000000.0,72.0,15
45.0,22.4307552338,61.6,0.036,7.97e-09,336000000.0,72.0,15
46.0,22.4582231522,62.48,0.036,7.97e-09,336000000.0,72.0,15
47.0,22.4856910706,63.36,0.036,7.97e-09,336000000.0,72.0,15
48.0,22.51400432591,64.24,0.036,7.97e-09,336000000.0,72.0,15
49.0,22.54231758122,65.12,0.036,7.97e-09,336000000.0,72.0,15
50.0,22.57063083653,66.0,0.036,7.97e-09,336000000.0,72.0,15
51.0,22.59894409184,62.94,0.036,7.97e-09,336000000.0,72.0,15
52.0,22.62725734715,62.88,0.036,7.97e-09,336000000.0,72.0,15
53.0,22.65557060246,62.82,0.036,7.97e-09,336000000.0,72.0,15
54.0,22.68388385777,62.76,0.036,7.97e-09,336000000.0,72.0,15
55.0,22.71219711308,62.7,0.036,7.97e-09,336000000.0,72.0,15
56.0,22.74051036839,62.64,0.036,7.97e-09,336000000.0,72.0,15
57.0,22.7688236237,62.58,0.036,7.97e-09,336000000.0,72.0,15
58.0,22.79556598667,62.52,0.036,7.97e-09,336000000.0,72.0,15
59.0,22.82230834964,62.46,0.036,7.97e-09,336000000.0,72.0,15
60.0,22.84905071261,62.4,0.036,7.97e-09,336000000.0,72.0,15
61.0,22.87579307558,62.34,0.036,7.97e-09,336000000.0,72.0,15
62.0,22.90253543855,62.28,0.036,7.97e-09,336000000.0,72.0,15
63.0,22.92927780152,62.22,0.036,7.97e-09,336000000.0,72.0,15
64.0,22.95602016449,62.16,0.036,7.97e-09,336000000.0,72.0,15
65.0,22.98276252746,62.1,0.036,7.97e-09,336000000.0,72.0,15
66.0,23.00950489043,62.04,0.036,7.97e-09,336000000.0,72.0,15
67.0,23.0362472534,61.98,0.036,7.97e-09,336000000.0,72.0,15
68.0,23.06194248198,61.92,0.036,7.97e-09,336000000.0,72.0,15
69.0,23.08763771056,61.86,0.036,7.97e-09,336000000.0,72.0,15
70.0,23.11333293914,61.8,0.036,7.97e-09,336000000.0,72.0,15
71.0,23.13902816772,61.74,0.036,7.97e-09,336000000.0,72.0,15
72.0,23.1647233963,61.68,0.036,7.97e-09,336000000.0,72.0,15
73.0,23.19041862488,61.62,0.036,7.97e-09,336000000.0,72.0,15
74.0,23.21611385346,61.56,0.036,7.97e-09,336000000.0,72.0,15
75.0,23.24180908204,61.5,0.036,7.97e-09,336000000.0,72.0,15
76.0,23.26750431062,61.44,0.036,7.97e-09,336000000.0,72.0,15
77.0,23.2931995392,61.38,0.036,7.97e-09,336000000.0,72.0,15
78.0,23.3179582596,61.32,0.036,7.97e-09,336000000.0,72.0,15
79.0,23.34271698,61.26,0.036,7.97e-09,336000000.0,72.0,15
80.0,23.3674757004,61.2,0.036,7.97e-09,336000000.0,72.0,15
81.0,23.3922344208,61.14,0.036,7.97e-09,336000000.0,72.0,15
82.0,23.4169931412,61.08,0.036,7.97e-09,336000000.0,72.0,15
83.0,23.4417518616,61.02,0.036,7.97e-09,336000000.0,72.0,15
84.0,23.466510582,60.96,0.036,7.97e-09,336000000.0,72.0,15
85.0,23.4912693024,60.9,0.036,7.97e-09,336000000.0,72.0,15
86.0,23.5160280228,60.84,0.036,7.97e-09,336000000.0,72.0,15
87.0,23.5407867432,60.78,0.036,7.97e-09,336000000.0,72.0,15
88.0,23.56463165286,60.72,0.036,7.97e-09,336000000.0,72.0,15
89.0,23.58847656252,60.66,0.036,7.97e-09,336000000.0,72.0,15
90.0,23.61232147218,60.6,0.036,7.97e-09,336000000.0,72.0,15
91.0,23.63616638184,60.54,0.036,7.97e-09,336000000.0,72.0,15
92.0,23.6600112915,60.48,0.036,7.97e-09,336000000.0,72.0,15
93.0,23.68385620116,60.42,0.036,7.97e-09,336000000.0,72.0,15
94.0,23.70770111082,60.36,0.036,7.97e-09,336000000.0,72.0,15
95.0,23.73154602048,60.3,0.036,7.97e-09,336000000.0,72.0,15
96.0,23.75539093014,60.24,0.036,7.97e-09,336000000.0,72.0,15
97.0,23.7792358398,60.18,0.036,7.97e-09,336000000.0,72.0,15
98.0,23.80279903408,60.12,0.036,7.97e-09,336000000.0,72.0,15
99.0,23.82636222836,60.06,0.036,7.97e-09,336000000.0,72.0,15
100.0,23.84992542264,60.0,0.036,7.97e-09,336000000.0,72.0,15
101.0,23.87348861692,60,0.036,7.97e-09,336000000.0,72.0,15
102.0,23.8970518112,60,0.036,7.97e-09,336000000.0,72.0,15
103.0,23.92061500548,60,0.036,7.97e-09,336000000.0,72.0,15
104.0,23.94417819976,60,0.036,7.97e-09,336000000.0,72.0,15
105.0,23.96774139404,60,0.036,7.97e-09,336000000.0,72.0,15
106.0,23.99130458832,60,0.036,7.97e-09,336000000.0,72.0,15
107.0,24.0148677826,60,0.036,7.97e-09,336000000.0,72.0,15
108.0,24.03834590913,60,0.036,7.97e-09,336000000.0,72.0,15
109.0,24.06182403566,60,0.036,7.97e-09,336000000.0,72.0,15
110.0,24.08530216219,60,0.036,7.97e-09,336000000.0,72.0,15
111.0,24.10878028872,60,0.036,7.97e-09,336000000.0,72.0,15
112.0,24.13225841525,60,0.036,7.97e-09,336000000.0,72.0,15
113.0,24.15573654178,60,0.036,7.97e-09,336000000.0,72.0,15
114.0,24.17921466831,60,0.036,7.97e-09,336000000.0,72.0,15
115.0,24.20269279484,60,0.036,7.97e-09,336000000.0,72.0,15
116.0,24.22617092137,60,0.036,7.97e-09,336000000.0,72.0,15
117.0,24.2496490479,60,0.036,7.97e-09,336000000.0,72.0,15
118.0,24.27299442296,60,0.036,7.97e-09,336000000.0,72.0,15
119.0,24.29633979802,60,0.036,7.97e-09,336000000.0,72.0,15
120.0,24.31968517308,60,0.036,7.97e-09,336000000.0,72.0,15
121.0,24.34303054814,60,0.036,7.97e-09,336000000.0,72.0,15
122.0,24.3663759232,60,0.036,7.97e-09,336000000.0,72.0,15
123.0,24.38972129826,60,0.036,7.97e-09,336000000.0,72.0,15
124.0,24.41306667332,60,0.036,7.97e-09,336000000.0,72.0,15
125.0,24.43641204838,60,0.036,7.97e-09,336000000.0,72.0,15
126.0,24.45975742344,60,0.036,7.97e-09,336000000.0,72.0,15
127.0,24.4831027985,60,0.036,7.97e-09,336000000.0,72.0,15
128.0,24.50630378727,60,0.036,7.97e-09,336000000.0,72.0,15
129.0,24.52950477604,60,0.036,7.97e-09,336000000.0,72.0,15
130.0,24.55270576481,60,0.036,7.97e-09,336000000.0,72.0,15
131.0,24.57590675358,60,0.036,7.97e-09,336000000.0,72.0,15
132.0,24.59910774235,60,0.036,7.97e-09,336000000.0,72.0,15
133.0,24.62230873112,60,0.036,7.97e-09,336000000.0,72.0,15
134.0,24.64550971989,60,0.036,7.97e-09,336000000.0,72.0,15
135.0,24.66871070866,60,0.036,7.97e-09,336000000.0,72.0,15
136.0,24.69191169743,60,0.036,7.97e-09,336000000.0,72.0,15
137.0,24.7151126862,60,0.036,7.97e-09,336000000.0,72.0,15
138.0,24.73816604618,60,0.036,7.97e-09,336000000.0,72.0,15
139.0,24.76121940616,60,0.036,7.97e-09,336000000.0,72.0,15
140.0,24.78427276614,60,0.036,7.97e-09,336000000.0,72.0,15
141.0,24.80732612612,60,0.036,7.97e-09,336000000.0,72.0,15
142.0,24.8303794861,60,0.036,7.97e-09,336000000.0,72.0,15
143.0,24.85343284608,60,0.036,7.97e-09,336000000.0,72.0,15
144.0,24.87648620606,60,0.036,7.97e-09,336000000.0,72.0,15
145.0,24.89953956604,60,0.036,7.97e-09,336000000.0,72.0,15
146.0,24.92259292602,60,0.036,7.97e-09,336000000.0,72.0,15
147.0,24.945646286,60,0.036,7.97e-09,336000000.0,72.0,15
148.0,24.96855068206,60,0.036,7.97e-09,336000000.0,72.0,15
149.0,24.99145507812,60,0.036,7.97e-09,336000000.0,72.0,15
150.0,25.01435947418,60,0.036,7.97e-09,336000000.0,72.0,15
151.0,25.03726387024,60,0.036,7.97e-09,336000000.0,72.0,15
152.0,25.0601682663,60,0.036,7.97e-09,336000000.0,72.0,15
153.0,25.08307266236,60,0.036,7.97e-09,336000000.0,72.0,15
154.0,25.10597705842,60,0.036,7.97e-09,336000000.0,72.0,15
155.0,25.12888145448,60,0.036,7.97e-09,336000000.0,72.0,15
156.0,25.15178585054,60,0.036,7.97e-09,336000000.0,72.0,15
157.0,25.1746902466,60,0.036,7.97e-09,336000000.0,72.0,15
158.0,25.19744625093,60,0.036,7.97e-09,336000000.0,72.0,15
159.0,25.22020225526,60,0.036,7.97e-09,336000000.0,72.0,15
160.0,25.24295825959,60,0.036,7.97e-09,336000000.0,72.0,15
161.0,25.26571426392,60,0.036,7.97e-09,336000000.0,72.0,15
162.0,25.28847026825,60,0.036,7.97e-09,336000000.0,72.0,15
163.0,25.31122627258,60,0.036,7.97e-09,336000000.0,72.0,15
164.0,25.33398227691,60,0.036,7.97e-09,336000000.0,72.0,15
165.0,25.35673828124,60,0.036,7.97e-09,336000000.0,72.0,15
166.0,25.37949428557,60,0.036,7.97e-09,336000000.0,72.0,15
167.0,25.4022502899,60,0.036,7.97e-09,336000000.0,72.0,15
168.0,25.42485828398,60,0.036,7.97e-09,336000000.0,72.0,15
169.0,25.44746627806,60,0.036,7.97e-09,336000000.0,72.0,15
170.0,25.47007427214,60,0.036,7.97e-09,336000000.0,72.0,15
171.0,25.49268226622,60,0.036,7.97e-09,336000000.0,72.0,15
172.0,25.5152902603,60,0.036,7.97e-09,336000000.0,72.0,15
173.0,25.53789825438,60,0.036,7.97e-09,336000000.0,72.0,15
174.0,25.56050624846,60,0.036,7.97e-09,336000000.0,72.0,15
175.0,25.58311424254,60,0.036,7.97e-09,336000000.0,72.0,15
176.0,25.60572223662,60,0.036,7.97e-09,336000000.0,72.0,15
177.0,25.6283302307,60,0.036,7.97e-09,336000000.0,72.0,15
178.0,25.65079097747,60,0.036,7.97e-09,336000000.0,72.0,15
179.0,25.67325172424,60,0.036,7.97e-09,336000000.0,72.0,15
180.0,25.69571247101,60,0.036,7.97e-09,336000000.0,72.0,15
181.0,25.71817321778,60,0.036,7.97e-09,336000000.0,72.0,15
182.0,25.74063396455,60,0.036,7.97e-09,336000000.0,72.0,15
183.0,25.76309471132,60,0.036,7.97e-09,336000000.0,72.0,15
184.0,25.78555545809,60,0.036,7.97e-09,336000000.0,72.0,15
185.0,25.80801620486,60,0.036,7.97e-09,336000000.0,72.0,15
186.0,25.83047695163,60,0.036,7.97e-09,336000000.0,72.0,15
187.0,25.8529376984,60,0.036,7.97e-09,336000000.0,72.0,15
188.0,25.87525177005,60,0.036,7.97e-09,336000000.0,72.0,15
189.0,25.8975658417,60,0.036,7.97e-09,336000000.0,72.0,15
190.0,25.91987991335,60,0.036,7.97e-09,336000000.0,72.0,15
191.0,25.942193985,60,0.036,7.97e-09,336000000.0,72.0,15
192.0,25.96450805665,60,0.036,7.97e-09,336000000.0,72.0,15
193.0,25.9868221283,60,0.036,7.97e-09,336000000.0,72.0,15
194.0,26.00913619995,60,0.036,7.97e-09,336000000.0,72.0,15
195.0,26.0314502716,60,0.036,7.97e-09,336000000.0,72.0,15
196.0,26.05376434325,60,0.036,7.97e-09,336000000.0,72.0,15
197.0,26.0760784149,60,0.036,7.97e-09,336000000.0,72.0,15
198.0,26.09824695586,60,0.036,7.97e-09,336000000.0,72.0,15
199.0,26.12041549682,60,0.036,7.97e-09,336000000.0,72.0,15
200.0,26.14258403778,60,0.036,7.97e-09,336000000.0,72.0,15
201.0,26.16475257874,60,0.036,7.97e-09,336000000.0,72.0,15
202.0,26.1869211197,60,0.036,7.97e-09,336000000.0,72.0,15
203.0,26.20908966066,60,0.036,7.97e-09,336000000.0,72.0,15
204.0,26.23125820162,60,0.036,7.97e-09,336000000.0,72.0,15
205.0,26.25342674258,60,0.036,7.97e-09,336000000.0,72.0,15
206.0,26.27559528354,60,0.036,7.97e-09,336000000.0,72.0,15
207.0,26.2977638245,60,0.036,7.97e-09,336000000.0,72.0,15
208.0,26.31978778842,60,0.036,7.97e-09,336000000.0,72.0,15
209.0,26.34181175234,60,0.036,7.97e-09,336000000.0,72.0,15
210.0,26.36383571626,60,0.036,7.97e-09,336000000.0,72.0,15
211.0,26.38585968018,60,0.036,7.97e-09,336000000.0,72.0,15
212.0,26.4078836441,60,0.036,7.97e-09,336000000.0,72.0,15
213.0,26.42990760802,60,0.036,7.97e-09,336000000.0,72.0,15
214.0,26.45193157194,60,0.036,7.97e-09,336000000.0,72.0,15
215.0,26.47395553586,60,0.036,7.97e-09,336000000.0,72.0,15
216.0,26.49597949978,60,0.036,7.97e-09,336000000.0,72.0,15
217.0,26.5180034637,60,0.036,7.97e-09,336000000.0,72.0,15
218.0,26.53988342281,60,0.036,7.97e-09,336000000.0,72.0,15
219.0,26.56176338192,60,0.036,7.97e-09,336000000.0,72.0,15
220.0,26.58364334103,60,0.036,7.97e-09,336000000.0,72.0,15
221.0,26.60552330014,60,0.036,7.97e-09,336000000.0,72.0,15
222.0,26.62740325925,60,0.036,7.97e-09,336000000.0,72.0,15
223.0,26.64928321836,60,0.036,7.97e-09,336000000.0,72.0,15
224.0,26.67116317747,60,0.036,7.97e-09,336000000.0,72.0,15
225.0,26.69304313658,60,0.036,7.97e-09,336000000.0,72.0,15
226.0,26.71492309569,60,0.036,7.97e-09,336000000.0,72.0,15
227.0,26.7368030548,60,0.036,7.97e-09,336000000.0,72.0,15
228.0,26.75854015349,60,0.036,7.97e-09,336000000.0,72.0,15
229.0,26.78027725218,60,0.036,7.97e-09,336000000.0,72.0,15
230.0,26.80201435087,60,0.036,7.97e-09,336000000.0,72.0,15
231.0,26.82375144956,60,0.036,7.97e-09,336000000.0,72.0,15
232.0,26.84548854825,60,0.036,7.97e-09,336000000.0,72.0,15
233.0,26.86722564694,60,0.036,7.97e-09,336000000.0,72.0,15
234.0,26.88896274563,60,0.036,7.97e-09,336000000.0,72.0,15
235.0,26.91069984432,60,0.036,7.97e-09,336000000.0,72.0,15
236.0,26.93243694301,60,0.036,7.97e-09,336000000.0,72.0,15
237.0,26.9541740417,60,0.036,7.97e-09,336000000.0,72.0,15
238.0,26.97576904293,60,0.036,7.97e-09,336000000.0,72.0,15
239.0,26.99736404416,60,0.036,7.97e-09,336000000.0,72.0,15
240.0,27.01895904539,60,0.036,7.97e-09,336000000.0,72.0,15
241.0,27.04055404662,60,0.036,7.97e-09,336000000.0,72.0,15
242.0,27.06214904785,60,0.036,7.97e-09,336000000.0,72.0,15
243.0,27.08374404908,60,0.036,7.97e-09,336000000.0,72.0,15
244.0,27.10533905031,60,0.036,7.97e-09,336000000.0,72.0,15
245.0,27.12693405154,60,0.036,7.97e-09,336000000.0,72.0,15
246.0,27.14852905277,60,0.036,7.97e-09,336000000.0,72.0,15
247.0,27.170124054,60,0.036,7.97e-09,336000000.0,72.0,15
248.0,27.19157810215,60,0.036,7.97e-09,336000000.0,72.0,15
249.0,27.2130321503,60,0.036,7.97e-09,336000000.0,72.0,15
250.0,27.23448619845,60,0.036,7.97e-09,336000000.0,72.0,15
251.0,27.2559402466,60,0.036,7.97e-09,336000000.0,72.0,15
252.0,27.27739429475,60,0.036,7.97e-09,336000000.0,72.0,15
253.0,27.2988483429,60,0.036,7.97e-09,336000000.0,72.0,15
254.0,27.32030239105,60,0.036,7.97e-09,336000000.0,72.0,15
255.0,27.3417564392,60,0.036,7.97e-09,336000000.0,72.0,15
256.0,27.36321048735,60,0.036,7.97e-09,336000000.0,72.0,15
257.0,27.3846645355,60,0.036,7.97e-09,336000000.0,72.0,15
258.0,27.40597839353,60,0.036,7.97e-09,336000000.0,72.0,15
259.0,27.42729225156,60,0.036,7.97e-09,336000000.0,72.0,15
260.0,27.44860610959,60,0.036,7.97e-09,336000000.0,72.0,15
261.0,27.46991996762,60,0.036,7.97e-09,336000000.0,72.0,15
262.0,27.49123382565,60,0.036,7.97e-09,336000000.0,72.0,15
263.0,27.51254768368,60,0.036,7.97e-09,336000000.0,72.0,15
264.0,27.53386154171,60,0.036,7.97e-09,336000000.0,72.0,15
265.0,27.55517539974,60,0.036,7.97e-09,336000000.0,72.0,15
266.0,27.57648925777,60,0.036,7.97e-09,336000000.0,72.0,15
267.0,27.5978031158,60,0.036,7.97e-09,336000000.0,72.0,15
268.0,27.61897754665,60,0.036,7.97e-09,336000000.0,72.0,15
269.0,27.6401519775,60,0.036,7.97e-09,336000000.0,72.0,15
270.0,27.66132640835,60,0.036,7.97e-09,336000000.0,72.0,15
271.0,27.6825008392,60,0.036,7.97e-09,336000000.0,72.0,15
272.0,27.70367527005,60,0.036,7.97e-09,336000000.0,72.0,15
273.0,27.7248497009,60,0.036,7.97e-09,336000000.0,72.0,15
274.0,27.74602413175,60,0.036,7.97e-09,336000000.0,72.0,15
275.0,27.7671985626,60,0.036,7.97e-09,336000000.0,72.0,15
276.0,27.78837299345,60,0.036,7.97e-09,336000000.0,72.0,15
277.0,27.8095474243,60,0.036,7.97e-09,336000000.0,72.0,15
278.0,27.83058357237,60,0.036,7.97e-09,336000000.0,72.0,15
279.0,27.85161972044,60,0.036,7.97e-09,336000000.0,72.0,15
280.0,27.87265586851,60,0.036,7.97e-09,336000000.0,72.0,15
281.0,27.89369201658,60,0.036,7.97e-09,336000000.0,72.0,15
282.0,27.91472816465,60,0.036,7.97e-09,336000000.0,72.0,15
283.0,27.93576431272,60,0.036,7.97e-09,336000000.0,72.0,15
284.0,27.95680046079,60,0.036,7.97e-09,336000000.0,72.0,15
285.0,27.97783660886,60,0.036,7.97e-09,336000000.0,72.0,15
286.0,27.99887275693,60,0.036,7.97e-09,336000000.0,72.0,15
287.0,28.019908905,60,0.036,7.97e-09,336000000.0,72.0,15
288.0,28.04080772397,60,0.036,7.97e-09,336000000.0,72.0,15
289.0,28.06170654294,60,0.036,7.97e-09,336000000.0,72.0,15
290.0,28.08260536191,60,0.036,7.97e-09,336000000.0,72.0,15
291.0,28.10350418088,60,0.036,7.97e-09,336000000.0,72.0,15
292.0,28.12440299985,60,0.036,7.97e-09,336000000.0,72.0,15
293.0,28.14530181882,60,0.036,7.97e-09,336000000.0,72.0,15
294.0,28.16620063779,60,0.036,7.97e-09,336000000.0,72.0,15
295.0,28.18709945676,60,0.036,7.97e-09,336000000.0,72.0,15
296.0,28.20799827573,60,0.036,7.97e-09,336000000.0,72.0,15
297.0,28.2288970947,60,0.036,7.97e-09,336000000.0,72.0,15
298.0,28.24965915678,60,0.036,7.97e-09,336000000.0,72.0,15
299.0,28.27042121886,60,0.036,7.97e-09,336000000.0,72.0,15
300.0,28.29118328094,60,0.036,7.97e-09,336000000.0,72.0,15
301.0,28.31194534302,60,0.036,7.97e-09,336000000.0,72.0,15
302.0,28.3327074051,60,0.036,7.97e-09,336000000.0,72.0,15
303.0,28.35346946718,60,0.036,7.97e-09,336000000.0,72.0,15
304.0,28.37423152926,60,0.036,7.97e-09,336000000.0,72.0,15
305.0,28.39499359134,60,0.036,7.97e-09,336000000.0,72.0,15
306.0,28.41575565342,60,0.036,7.97e-09,336000000.0,72.0,15
307.0,28.4365177155,60,0.036,7.97e-09,336000000.0,72.0,15
308.0,28.45714416508,60,0.036,7.97e-09,336000000.0,72.0,15
309.0,28.47777061466,60,0.036,7.97e-09,336000000.0,72.0,15
310.0,28.49839706424,60,0.036,7.97e-09,336000000.0,72.0,15
311.0,28.51902351382,60,0.036,7.97e-09,336000000.0,72.0,15
312.0,28.5396499634,60,0.036,7.97e-09,336000000.0,72.0,15
313.0,28.56027641298,60,0.036,7.97e-09,336000000.0,72.0,15
314.0,28.58090286256,60,0.036,7.97e-09,336000000.0,72.0,15
315.0,28.60152931214,60,0.036,7.97e-09,336000000.0,72.0,15
316.0,28.62215576172,60,0.036,7.97e-09,336000000.0,72.0,15
317.0,28.6427822113,60,0.036,7.97e-09,336000000.0,72.0,15
318.0,28.66327400207,60,0.036,7.97e-09,336000000.0,72.0,15
319.0,28.68376579284,60,0.036,7.97e-09,336000000.0,72.0,15
320.0,28.70425758361,60,0.036,7.97e-09,336000000.0,72.0,15
321.0,28.72474937438,60,0.036,7.97e-09,336000000.0,72.0,15
322.0,28.74524116515,60,0.036,7.97e-09,336000000.0,72.0,15
323.0,28.76573295592,60,0.036,7.97e-09,336000000.0,72.0,15
324.0,28.78622474669,60,0.036,7.97e-09,336000000.0,72.0,15
325.0,28.80671653746,60,0.036,7.97e-09,336000000.0,72.0,15
326.0,28.82720832823,60,0.036,7.97e-09,336000000.0,72.0,15
327.0,28.847700119,60,0.036,7.97e-09,336000000.0,72.0,15
328.0,28.86805782316,60,0.036,7.97e-09,336000000.0,72.0,15
329.0,28.88841552732,60,0.036,7.97e-09,336000000.0,72.0,15
330.0,28.90877323148,60,0.036,7.97e-09,336000000.0,72.0,15
331.0,28.92913093564,60,0.036,7.97e-09,336000000.0,72.0,15
332.0,28.9494886398,60,0.036,7.97e-09,336000000.0,72.0,15
333.0,28.96984634396,60,0.036,7.97e-09,336000000.0,72.0,15
334.0,28.99020404812,60,0.036,7.97e-09,336000000.0,72.0,15
335.0,29.01056175228,60,0.036,7.97e-09,336000000.0,72.0,15
336.0,29.03091945644,60,0.036,7.97e-09,336000000.0,72.0,15
