time,T_int,T_ext_1,Film_Coef,Density,Specific_Heat,Thermal_Conductivity,Radius
1.0,21.9948787689,22.88,0.036,2.71e-09,571000000.0,285.0,25
2.0,21.9858474731,23.76,0.036,2.71e-09,571000000.0,285.0,25
3.0,21.9746627808,24.64,0.036,2.71e-09,571000000.0,285.0,25
4.0,21.96306419375,25.52,0.036,2.71e-09,571000000.0,285.0,25
5.0,21.9514656067,26.4,0.036,2.71e-09,571000000.0,285.0,25
6.0,21.9427380562,27.28,0.036,2.71e-09,571000000.0,285.0,25
7.0,21.9340105057,28.16,0.036,2.71e-09,571000000.0,285.0,25
8.0,21.9252829552,29.04,0.036,2.71e-09,571000000.0,285.0,25
9.0,21.9165554047,29.92,0.036,2.71e-09,571000000.0,285.0,25
10.0,21.915441989925,30.8,0.036,2.71e-09,571000000.0,285.0,25
11.0,21.91432857515,31.68,0.036,2.71e-09,571000000.0,285.0,25
12.0,21.913215160375,32.56,0.036,2.71e-09,571000000.0,285.0,25
13.0,21.9121017456,33.44,0.036,2.71e-09,571000000.0,285.0,25
14.0,21.910988330825,34.32,0.036,2.71e-09,571000000.0,285.0,25
15.0,21.90987491605,35.2,0.036,2.71e-09,571000000.0,285.0,25
16.0,21.908761501275,36.08,0.036,2.71e-09,571000000.0,285.0,25
17.0,21.9076480865,36.96,0.036,2.71e-09,571000000.0,285.0,25
18.0,21.91635036464,37.84,0.036,2.71e-09,571000000.0,285.0,25
19.0,21.92505264278,38.72,0.036,2.71e-09,571000000.0,285.0,25
20.0,21.93375492092,39.6,0.036,2.71e-09,571000000.0,285.0,25
21.0,21.94245719906,40.48,0.036,2.71e-09,571000000.0,285.0,25
22.0,21.9511594772,41.36,0.036,2.71e-09,571000000.0,285.0,25
23.0,21.95986175534,42.24,0.036,2.71e-09,571000000.0,285.0,25
24.0,21.96856403348,43.12,0.036,2.71e-09,571000000.0,285.0,25
25.0,21.97726631162,44.0,0.036,2.71e-09,571000000.0,285.0,25
26.0,21.98596858976,44.88,0.036,2.71e-09,571000000.0,285.0,25
27.0,21.9946708679,45.76,0.036,2.71e-09,571000000.0,285.0,25
28.0,22.01317653654,46.64,0.036,2.71e-09,571000000.0,285.0,25
29.0,22.03168220518,47.52,0.036,2.71e-09,571000000.0,285.0,25
30.0,22.05018787382,48.4,0.036,2.71e-09,571000000.0,285.0,25
31.0,22.06869354246,49.28,0.036,2.71e-09,571000000.0,285.0,25
32.0,22.0871992111,50.16,0.036,2.71e-09,571000000.0,285.0,25
33.0,22.10570487974,51.04,0.036,2.71e-09,571000000.0,285.0,25
34.0,22.12421054838,51.92,0.036,2.71e-09,571000000.0,285.0,25
35.0,22.14271621702,52.8,0.036,2.71e-09,571000000.0,285.0,25
36.0,22.16122188566,53.68,0.036,2.71e-09,571000000.0,285.0,25
37.0,22.1797275543,54.56,0.036,2.71e-09,571000000.0,285.0,25
38.0,22.20797805784,55.44,0.036,2.71e-09,571000000.0,285.0,25
39.0,22.23622856138,56.32,0.036,2.71e-09,571000000.0,285.0,25
40.0,22.26447906492,57.2,0.036,2.71e-09,571000000.0,285.0,25
41.0,22.29272956846,58.08,0.036,2.71e-09,571000000.0,285.0,25
42.0,22.320980072,58.96,0.036,2.71e-09,571000000.0,285.0,25
43.0,22.34923057554,59.84,0.036,2.71e-09,571000000.0,285.0,25
44.0,22.37748107908,60.72,0.036,2.71e-09,571000000.0,285.0,25
45.0,22.40573158262,61.6,0.036,2.71e-09,571000000.0,285.0,25
46.0,22.43398208616,62.48,0.036,2.71e-09,571000000.0,285.0,25
47.0,22.4622325897,63.36,0.036,2.71e-09,571000000.0,285.0,25
48.0,22.49367542265,64.24,0.036,2.71e-09,571000000.0,285.0,25
49.0,22.5251182556,65.12,0.036,2.71e-09,571000000.0,285.0,25
50.0,22.55656108855,66.0,0.036,2.71e-09,571000000.0,285.0,25
51.0,22.5880039215,62.94,0.036,2.71e-09,571000000.0,285.0,25
52.0,22.61944675445,62.88,0.036,2.71e-09,571000000.0,285.0,25
53.0,22.6508895874,62.82,0.036,2.71e-09,571000000.0,285.0,25
54.0,22.68233242035,62.76,0.036,2.71e-09,571000000.0,285.0,25
55.0,22.7137752533,62.7,0.036,2.71e-09,571000000.0,285.0,25
56.0,22.74521808625,62.64,0.036,2.71e-09,571000000.0,285.0,25
57.0,22.7766609192,62.58,0.036,2.71e-09,571000000.0,285.0,25
58.0,22.80756359101,62.52,0.036,2.71e-09,571000000.0,285.0,25
59.0,22.83846626282,62.46,0.036,2.71e-09,571000000.0,285.0,25
60.0,22.86936893463,62.4,0.036,2.71e-09,571000000.0,285.0,25
61.0,22.90027160644,62.34,0.036,2.71e-09,571000000.0,285.0,25
62.0,22.93117427825,62.28,0.036,2.71e-09,571000000.0,285.0,25
63.0,22.96207695006,62.22,0.036,2.71e-09,571000000.0,285.0,25
64.0,22.99297962187,62.16,0.036,2.71e-09,571000000.0,285.0,25
65.0,23.02388229368,62.1,0.036,2.71e-09,571000000.0,285.0,25
66.0,23.05478496549,62.04,0.036,2.71e-09,571000000.0,285.0,25
67.0,23.0856876373,61.98,0.036,2.71e-09,571000000.0,285.0,25
68.0,23.11554107663,61.92,0.036,2.71e-09,571000000.0,285.0,25
69.0,23.14539451596,61.86,0.036,2.71e-09,571000000.0,285.0,25
70.0,23.17524795529,61.8,0.036,2.71e-09,571000000.0,285.0,25
71.0,23.20510139462,61.74,0.036,2.71e-09,571000000.0,285.0,25
72.0,23.23495483395,61.68,0.036,2.71e-09,571000000.0,285.0,25
73.0,23.26480827328,61.62,0.036,2.71e-09,571000000.0,285.0,25
74.0,23.29466171261,61.56,0.036,2.71e-09,571000000.0,285.0,25
75.0,23.32451515194,61.5,0.036,2.71e-09,571000000.0,285.0,25
76.0,23.35436859127,61.44,0.036,2.71e-09,571000000.0,285.0,25
77.0,23.3842220306,61.38,0.036,2.71e-09,571000000.0,285.0,25
78.0,23.41296730038,61.32,0.036,2.71e-09,571000000.0,285.0,25
79.0,23.44171257016,61.26,0.036,2.71e-09,571000000.0,285.0,25
80.0,23.47045783994,61.2,0.036,2.71e-09,571000000.0,285.0,25
81.0,23.49920310972,61.14,0.036,2.71e-09,571000000.0,285.0,25
82.0,23.5279483795,61.08,0.036,2.71e-09,571000000.0,285.0,25
83.0,23.55669364928,61.02,0.036,2.71e-09,571000000.0,285.0,25
84.0,23.58543891906,60.96,0.036,2.71e-09,571000000.0,285.0,25
85.0,23.61418418884,60.9,0.036,2.71e-09,571000000.0,285.0,25
86.0,23.64292945862,60.84,0.036,2.71e-09,571000000.0,285.0,25
87.0,23.6716747284,60.78,0.036,2.71e-09,571000000.0,285.0,25
88.0,23.6993095398,60.72,0.036,2.71e-09,571000000.0,285.0,25
89.0,23.7269443512,60.66,0.036,2.71e-09,571000000.0,285.0,25
90.0,23.7545791626,60.6,0.036,2.71e-09,571000000.0,285.0,25
91.0,23.782213974,60.54,0.036,2.71e-09,571000000.0,285.0,25
92.0,23.8098487854,60.48,0.036,2.71e-09,571000000.0,285.0,25
93.0,23.8374835968,60.42,0.036,2.71e-09,571000000.0,285.0,25
94.0,23.8651184082,60.36,0.036,2.71e-09,571000000.0,285.0,25
95.0,23.8927532196,60.3,0.036,2.71e-09,571000000.0,285.0,25
96.0,23.920388031,60.24,0.036,2.71e-09,571000000.0,285.0,25
97.0,23.9480228424,60.18,0.036,2.71e-09,571000000.0,285.0,25
98.0,23.97509307861,60.12,0.036,2.71e-09,571000000.0,285.0,25
99.0,24.00216331482,60.06,0.036,2.71e-09,571000000.0,285.0,25
100.0,24.02923355103,60.0,0.036,2.71e-09,571000000.0,285.0,25
101.0,24.05630378724,60,0.036,2.71e-09,571000000.0,285.0,25
102.0,24.08337402345,60,0.036,2.71e-09,571000000.0,285.0,25
103.0,24.11044425966,60,0.036,2.71e-09,571000000.0,285.0,25
104.0,24.13751449587,60,0.036,2.71e-09,571000000.0,285.0,25
105.0,24.16458473208,60,0.036,2.71e-09,571000000.0,285.0,25
106.0,24.19165496829,60,0.036,2.71e-09,571000000.0,285.0,25
107.0,24.2187252045,60,0.036,2.71e-09,571000000.0,285.0,25
108.0,24.24554347995,60,0.036,2.71e-09,571000000.0,285.0,25
109.0,24.2723617554,60,0.036,2.71e-09,571000000.0,285.0,25
110.0,24.29918003085,60,0.036,2.71e-09,571000000.0,285.0,25
111.0,24.3259983063,60,0.036,2.71e-09,571000000.0,285.0,25
112.0,24.35281658175,60,0.036,2.71e-09,571000000.0,285.0,25
113.0,24.3796348572,60,0.036,2.71e-09,571000000.0,285.0,25
114.0,24.40645313265,60,0.036,2.71e-09,571000000.0,285.0,25
115.0,24.4332714081,60,0.036,2.71e-09,571000000.0,285.0,25
116.0,24.46008968355,60,0.036,2.71e-09,571000000.0,285.0,25
117.0,24.486907959,60,0.036,2.71e-09,571000000.0,285.0,25
118.0,24.51351871492,60,0.036,2.71e-09,571000000.0,285.0,25
119.0,24.54012947084,60,0.036,2.71e-09,571000000.0,285.0,25
120.0,24.56674022676,60,0.036,2.71e-09,571000000.0,285.0,25
121.0,24.59335098268,60,0.036,2.71e-09,571000000.0,285.0,25
122.0,24.6199617386,60,0.036,2.71e-09,571000000.0,285.0,25
123.0,24.64657249452,60,0.036,2.71e-09,571000000.0,285.0,25
124.0,24.67318325044,60,0.036,2.71e-09,571000000.0,285.0,25
125.0,24.69979400636,60,0.036,2.71e-09,571000000.0,285.0,25
126.0,24.72640476228,60,0.036,2.71e-09,571000000.0,285.0,25
127.0,24.7530155182,60,0.036,2.71e-09,571000000.0,285.0,25
128.0,24.77942562104,60,0.036,2.71e-09,571000000.0,285.0,25
129.0,24.80583572388,60,0.036,2.71e-09,571000000.0,285.0,25
130.0,24.83224582672,60,0.036,2.71e-09,571000000.0,285.0,25
131.0,24.85865592956,60,0.036,2.71e-09,571000000.0,285.0,25
132.0,24.8850660324,60,0.036,2.71e-09,571000000.0,285.0,25
133.0,24.91147613524,60,0.036,2.71e-09,571000000.0,285.0,25
134.0,24.93788623808,60,0.036,2.71e-09,571000000.0,285.0,25
135.0,24.96429634092,60,0.036,2.71e-09,571000000.0,285.0,25
136.0,24.99070644376,60,0.036,2.71e-09,571000000.0,285.0,25
137.0,25.0171165466,60,0.036,2.71e-09,571000000.0,285.0,25
138.0,25.04332847592,60,0.036,2.71e-09,571000000.0,285.0,25
139.0,25.06954040524,60,0.036,2.71e-09,571000000.0,285.0,25
140.0,25.09575233456,60,0.036,2.71e-09,571000000.0,285.0,25
141.0,25.12196426388,60,0.036,2.71e-09,571000000.0,285.0,25
142.0,25.1481761932,60,0.036,2.71e-09,571000000.0,285.0,25
143.0,25.17438812252,60,0.036,2.71e-09,571000000.0,285.0,25
144.0,25.20060005184,60,0.036,2.71e-09,571000000.0,285.0,25
145.0,25.22681198116,60,0.036,2.71e-09,571000000.0,285.0,25
146.0,25.25302391048,60,0.036,2.71e-09,571000000.0,285.0,25
147.0,25.2792358398,60,0.036,2.71e-09,571000000.0,285.0,25
148.0,25.30525131222,60,0.036,2.71e-09,571000000.0,285.0,25
149.0,25.33126678464,60,0.036,2.71e-09,571000000.0,285.0,25
150.0,25.35728225706,60,0.036,2.71e-09,571000000.0,285.0,25
151.0,25.38329772948,60,0.036,2.71e-09,571000000.0,285.0,25
152.0,25.4093132019,60,0.036,2.71e-09,571000000.0,285.0,25
153.0,25.43532867432,60,0.036,2.71e-09,571000000.0,285.0,25
154.0,25.46134414674,60,0.036,2.71e-09,571000000.0,285.0,25
155.0,25.48735961916,60,0.036,2.71e-09,571000000.0,285.0,25
156.0,25.51337509158,60,0.036,2.71e-09,571000000.0,285.0,25
157.0,25.539390564,60,0.036,2.71e-09,571000000.0,285.0,25
158.0,25.56521110538,60,0.036,2.71e-09,571000000.0,285.0,25
159.0,25.59103164676,60,0.036,2.71e-09,571000000.0,285.0,25
160.0,25.61685218814,60,0.036,2.71e-09,571000000.0,285.0,25
161.0,25.64267272952,60,0.036,2.71e-09,571000000.0,285.0,25
162.0,25.6684932709,60,0.036,2.71e-09,571000000.0,285.0,25
163.0,25.69431381228,60,0.036,2.71e-09,571000000.0,285.0,25
164.0,25.72013435366,60,0.036,2.71e-09,571000000.0,285.0,25
165.0,25.74595489504,60,0.036,2.71e-09,571000000.0,285.0,25
166.0,25.77177543642,60,0.036,2.71e-09,571000000.0,285.0,25
167.0,25.7975959778,60,0.036,2.71e-09,571000000.0,285.0,25
168.0,25.82322292329,60,0.036,2.71e-09,571000000.0,285.0,25
169.0,25.84884986878,60,0.036,2.71e-09,571000000.0,285.0,25
170.0,25.87447681427,60,0.036,2.71e-09,571000000.0,285.0,25
171.0,25.90010375976,60,0.036,2.71e-09,571000000.0,285.0,25
172.0,25.92573070525,60,0.036,2.71e-09,571000000.0,285.0,25
173.0,25.95135765074,60,0.036,2.71e-09,571000000.0,285.0,25
174.0,25.97698459623,60,0.036,2.71e-09,571000000.0,285.0,25
175.0,26.00261154172,60,0.036,2.71e-09,571000000.0,285.0,25
176.0,26.02823848721,60,0.036,2.71e-09,571000000.0,285.0,25
177.0,26.0538654327,60,0.036,2.71e-09,571000000.0,285.0,25
178.0,26.07930049893,60,0.036,2.71e-09,571000000.0,285.0,25
179.0,26.10473556516,60,0.036,2.71e-09,571000000.0,285.0,25
180.0,26.13017063139,60,0.036,2.71e-09,571000000.0,285.0,25
181.0,26.15560569762,60,0.036,2.71e-09,571000000.0,285.0,25
182.0,26.18104076385,60,0.036,2.71e-09,571000000.0,285.0,25
183.0,26.20647583008,60,0.036,2.71e-09,571000000.0,285.0,25
184.0,26.23191089631,60,0.036,2.71e-09,571000000.0,285.0,25
185.0,26.25734596254,60,0.036,2.71e-09,571000000.0,285.0,25
186.0,26.28278102877,60,0.036,2.71e-09,571000000.0,285.0,25
187.0,26.308216095,60,0.036,2.71e-09,571000000.0,285.0,25
188.0,26.33346042636,60,0.036,2.71e-09,571000000.0,285.0,25
189.0,26.35870475772,60,0.036,2.71e-09,571000000.0,285.0,25
190.0,26.38394908908,60,0.036,2.71e-09,571000000.0,285.0,25
191.0,26.40919342044,60,0.036,2.71e-09,571000000.0,285.0,25
192.0,26.4344377518,60,0.036,2.71e-09,571000000.0,285.0,25
193.0,26.45968208316,60,0.036,2.71e-09,571000000.0,285.0,25
194.0,26.48492641452,60,0.036,2.71e-09,571000000.0,285.0,25
195.0,26.51017074588,60,0.036,2.71e-09,571000000.0,285.0,25
196.0,26.53541507724,60,0.036,2.71e-09,571000000.0,285.0,25
197.0,26.5606594086,60,0.036,2.71e-09,571000000.0,285.0,25
198.0,26.58571472171,60,0.036,2.71e-09,571000000.0,285.0,25
199.0,26.61077003482,60,0.036,2.71e-09,571000000.0,285.0,25
200.0,26.63582534793,60,0.036,2.71e-09,571000000.0,285.0,25
201.0,26.66088066104,60,0.036,2.71e-09,571000000.0,285.0,25
202.0,26.68593597415,60,0.036,2.71e-09,571000000.0,285.0,25
203.0,26.71099128726,60,0.036,2.71e-09,571000000.0,285.0,25
204.0,26.73604660037,60,0.036,2.71e-09,571000000.0,285.0,25
205.0,26.76110191348,60,0.036,2.71e-09,571000000.0,285.0,25
206.0,26.78615722659,60,0.036,2.71e-09,571000000.0,285.0,25
207.0,26.8112125397,60,0.036,2.71e-09,571000000.0,285.0,25
208.0,26.83607997897,60,0.036,2.71e-09,571000000.0,285.0,25
209.0,26.86094741824,60,0.036,2.71e-09,571000000.0,285.0,25
210.0,26.88581485751,60,0.036,2.71e-09,571000000.0,285.0,25
211.0,26.91068229678,60,0.036,2.71e-09,571000000.0,285.0,25
212.0,26.93554973605,60,0.036,2.71e-09,571000000.0,285.0,25
213.0,26.96041717532,60,0.036,2.71e-09,571000000.0,285.0,25
214.0,26.98528461459,60,0.036,2.71e-09,571000000.0,285.0,25
215.0,27.01015205386,60,0.036,2.71e-09,571000000.0,285.0,25
216.0,27.03501949313,60,0.036,2.71e-09,571000000.0,285.0,25
217.0,27.0598869324,60,0.036,2.71e-09,571000000.0,285.0,25
218.0,27.08456821444,60,0.036,2.71e-09,571000000.0,285.0,25
219.0,27.10924949648,60,0.036,2.71e-09,571000000.0,285.0,25
220.0,27.13393077852,60,0.036,2.71e-09,571000000.0,285.0,25
221.0,27.15861206056,60,0.036,2.71e-09,571000000.0,285.0,25
222.0,27.1832933426,60,0.036,2.71e-09,571000000.0,285.0,25
223.0,27.20797462464,60,0.036,2.71e-09,571000000.0,285.0,25
224.0,27.23265590668,60,0.036,2.71e-09,571000000.0,285.0,25
225.0,27.25733718872,60,0.036,2.71e-09,571000000.0,285.0,25
226.0,27.28201847076,60,0.036,2.71e-09,571000000.0,285.0,25
227.0,27.3066997528,60,0.036,2.71e-09,571000000.0,285.0,25
228.0,27.33119602203,60,0.036,2.71e-09,571000000.0,285.0,25
229.0,27.35569229126,60,0.036,2.71e-09,571000000.0,285.0,25
230.0,27.38018856049,60,0.036,2.71e-09,571000000.0,285.0,25
231.0,27.40468482972,60,0.036,2.71e-09,571000000.0,285.0,25
232.0,27.42918109895,60,0.036,2.71e-09,571000000.0,285.0,25
233.0,27.45367736818,60,0.036,2.71e-09,571000000.0,285.0,25
234.0,27.47817363741,60,0.036,2.71e-09,571000000.0,285.0,25
235.0,27.50266990664,60,0.036,2.71e-09,571000000.0,285.0,25
236.0,27.52716617587,60,0.036,2.71e-09,571000000.0,285.0,25
237.0,27.5516624451,60,0.036,2.71e-09,571000000.0,285.0,25
238.0,27.57597522738,60,0.036,2.71e-09,571000000.0,285.0,25
239.0,27.60028800966,60,0.036,2.71e-09,571000000.0,285.0,25
240.0,27.62460079194,60,0.036,2.71e-09,571000000.0,285.0,25
241.0,27.64891357422,60,0.036,2.71e-09,571000000.0,285.0,25
242.0,27.6732263565,60,0.036,2.71e-09,571000000.0,285.0,25
243.0,27.69753913878,60,0.036,2.71e-09,571000000.0,285.0,25
244.0,27.72185192106,60,0.036,2.71e-09,571000000.0,285.0,25
245.0,27.74616470334,60,0.036,2.71e-09,571000000.0,285.0,25
246.0,27.77047748562,60,0.036,2.71e-09,571000000.0,285.0,25
247.0,27.7947902679,60,0.036,2.71e-09,571000000.0,285.0,25
248.0,27.81892070766,60,0.036,2.71e-09,571000000.0,285.0,25
249.0,27.84305114742,60,0.036,2.71e-09,571000000.0,285.0,25
250.0,27.86718158718,60,0.036,2.71e-09,571000000.0,285.0,25
251.0,27.89131202694,60,0.036,2.71e-09,571000000.0,285.0,25
252.0,27.9154424667,60,0.036,2.71e-09,571000000.0,285.0,25
253.0,27.93957290646,60,0.036,2.71e-09,571000000.0,285.0,25
254.0,27.96370334622,60,0.036,2.71e-09,571000000.0,285.0,25
255.0,27.98783378598,60,0.036,2.71e-09,571000000.0,285.0,25
256.0,28.01196422574,60,0.036,2.71e-09,571000000.0,285.0,25
257.0,28.0360946655,60,0.036,2.71e-09,571000000.0,285.0,25
258.0,28.06004447935,60,0.036,2.71e-09,571000000.0,285.0,25
259.0,28.0839942932,60,0.036,2.71e-09,571000000.0,285.0,25
260.0,28.10794410705,60,0.036,2.71e-09,571000000.0,285.0,25
261.0,28.1318939209,60,0.036,2.71e-09,571000000.0,285.0,25
262.0,28.15584373475,60,0.036,2.71e-09,571000000.0,285.0,25
263.0,28.1797935486,60,0.036,2.71e-09,571000000.0,285.0,25
264.0,28.20374336245,60,0.036,2.71e-09,571000000.0,285.0,25
265.0,28.2276931763,60,0.036,2.71e-09,571000000.0,285.0,25
266.0,28.25164299015,60,0.036,2.71e-09,571000000.0,285.0,25
267.0,28.275592804,60,0.036,2.71e-09,571000000.0,285.0,25
268.0,28.29936313633,60,0.036,2.71e-09,571000000.0,285.0,25
269.0,28.32313346866,60,0.036,2.71e-09,571000000.0,285.0,25
270.0,28.34690380099,60,0.036,2.71e-09,571000000.0,285.0,25
271.0,28.37067413332,60,0.036,2.71e-09,571000000.0,285.0,25
272.0,28.39444446565,60,0.036,2.71e-09,571000000.0,285.0,25
273.0,28.41821479798,60,0.036,2.71e-09,571000000.0,285.0,25
274.0,28.44198513031,60,0.036,2.71e-09,571000000.0,285.0,25
275.0,28.46575546264,60,0.036,2.71e-09,571000000.0,285.0,25
276.0,28.48952579497,60,0.036,2.71e-09,571000000.0,285.0,25
277.0,28.5132961273,60,0.036,2.71e-09,571000000.0,285.0,25
278.0,28.53688831328,60,0.036,2.71e-09,571000000.0,285.0,25
279.0,28.56048049926,60,0.036,2.71e-09,571000000.0,285.0,25
280.0,28.58407268524,60,0.036,2.71e-09,571000000.0,285.0,25
281.0,28.60766487122,60,0.036,2.71e-09,571000000.0,285.0,25
282.0,28.6312570572,60,0.036,2.71e-09,571000000.0,285.0,25
283.0,28.65484924318,60,0.036,2.71e-09,571000000.0,285.0,25
284.0,28.67844142916,60,0.036,2.71e-09,571000000.0,285.0,25
285.0,28.70203361514,60,0.036,2.71e-09,571000000.0,285.0,25
286.0,28.72562580112,60,0.036,2.71e-09,571000000.0,285.0,25
287.0,28.7492179871,60,0.036,2.71e-09,571000000.0,285.0,25
288.0,28.77263336185,60,0.036,2.71e-09,571000000.0,285.0,25
289.0,28.7960487366,60,0.036,2.71e-09,571000000.0,285.0,25
290.0,28.81946411135,60,0.036,2.71e-09,571000000.0,285.0,25
291.0,28.8428794861,60,0.036,2.71e-09,571000000.0,285.0,25
292.0,28.86629486085,60,0.036,2.71e-09,571000000.0,285.0,25
293.0,28.8897102356,60,0.036,2.71e-09,571000000.0,285.0,25
294.0,28.91312561035,60,0.036,2.71e-09,571000000.0,285.0,25
295.0,28.9365409851,60,0.036,2.71e-09,571000000.0,285.0,25
296.0,28.95995635985,60,0.036,2.71e-09,571000000.0,285.0,25
297.0,28.9833717346,60,0.036,2.71e-09,571000000.0,285.0,25
298.0,29.00661163328,60,0.036,2.71e-09,571000000.0,285.0,25
299.0,29.02985153196,60,0.036,2.71e-09,571000000.0,285.0,25
300.0,29.05309143064,60,0.036,2.71e-09,571000000.0,285.0,25
301.0,29.07633132932,60,0.036,2.71e-09,571000000.0,285.0,25
302.0,29.099571228,60,0.036,2.71e-09,571000000.0,285.0,25
303.0,29.12281112668,60,0.036,2.71e-09,571000000.0,285.0,25
304.0,29.14605102536,60,0.036,2.71e-09,571000000.0,285.0,25
305.0,29.16929092404,60,0.036,2.71e-09,571000000.0,285.0,25
306.0,29.19253082272,60,0.036,2.71e-09,571000000.0,285.0,25
307.0,29.2157707214,60,0.036,2.71e-09,571000000.0,285.0,25
308.0,29.23883666989,60,0.036,2.71e-09,571000000.0,285.0,25
309.0,29.26190261838,60,0.036,2.71e-09,571000000.0,285.0,25
310.0,29.28496856687,60,0.036,2.71e-09,571000000.0,285.0,25
311.0,29.30803451536,60,0.036,2.71e-09,571000000.0,285.0,25
312.0,29.33110046385,60,0.036,2.71e-09,571000000.0,285.0,25
313.0,29.35416641234,60,0.036,2.71e-09,571000000.0,285.0,25
314.0,29.37723236083,60,0.036,2.71e-09,571000000.0,285.0,25
315.0,29.40029830932,60,0.036,2.71e-09,571000000.0,285.0,25
316.0,29.42336425781,60,0.036,2.71e-09,571000000.0,285.0,25
317.0,29.4464302063,60,0.036,2.71e-09,571000000.0,285.0,25
318.0,29.46932315827,60,0.036,2.71e-09,571000000.0,285.0,25
319.0,29.49221611024,60,0.036,2.71e-09,571000000.0,285.0,25
320.0,29.51510906221,60,0.036,2.71e-09,571000000.0,285.0,25
321.0,29.53800201418,60,0.036,2.71e-09,571000000.0,285.0,25
322.0,29.56089496615,60,0.036,2.71e-09,571000000.0,285.0,25
323.0,29.58378791812,60,0.036,2.71e-09,571000000.0,285.0,25
324.0,29.60668087009,60,0.036,2.71e-09,571000000.0,285.0,25
325.0,29.62957382206,60,0.036,2.71e-09,571000000.0,285.0,25
326.0,29.65246677403,60,0.036,2.71e-09,571000000.0,285.0,25
327.0,29.675359726,60,0.036,2.71e-09,571000000.0,285.0,25
328.0,29.69808120732,60,0.036,2.71e-09,571000000.0,285.0,25
329.0,29.72080268864,60,0.036,2.71e-09,571000000.0,285.0,25
330.0,29.74352416996,60,0.036,2.71e-09,571000000.0,285.0,25
