time,T_int,T_ext_1,Film_Coef,Density,Specific_Heat,Thermal_Conductivity,Radius
1.0,21.9972610474,22.88,0.036,2.61e-09,621000000.0,245.0,25
2.0,21.9918937683,23.76,0.036,2.61e-09,621000000.0,245.0,25
3.0,21.984418869,24.64,0.036,2.61e-09,621000000.0,245.0,25
4.0,21.9754333496,25.52,0.036,2.61e-09,621000000.0,245.0,25
5.0,21.9664478302,26.4,0.036,2.61e-09,621000000.0,245.0,25
6.0,21.9587802887,27.28,0.036,2.61e-09,621000000.0,245.0,25
7.0,21.9511127472,28.16,0.036,2.61e-09,621000000.0,245.0,25
8.0,21.9434452057,29.04,0.036,2.61e-09,621000000.0,245.0,25
9.0,21.9357776642,29.92,0.036,2.61e-09,621000000.0,245.0,25
10.0,21.9341094494,30.8,0.036,2.61e-09,621000000.0,245.0,25
11.0,21.9324412346,31.68,0.036,2.61e-09,621000000.0,245.0,25
12.0,21.9307730198,32.56,0.036,2.61e-09,621000000.0,245.0,25
13.0,21.929104805,33.44,0.036,2.61e-09,621000000.0,245.0,25
14.0,21.9274365902,34.32,0.036,2.61e-09,621000000.0,245.0,25
15.0,21.9257683754,35.2,0.036,2.61e-09,621000000.0,245.0,25
16.0,21.9241001606,36.08,0.036,2.61e-09,621000000.0,245.0,25
17.0,21.9224319458,36.96,0.036,2.61e-09,621000000.0,245.0,25
18.0,21.92909526825,37.84,0.036,2.61e-09,621000000.0,245.0,25
19.0,21.9357585907,38.72,0.036,2.61e-09,621000000.0,245.0,25
20.0,21.94242191315,39.6,0.036,2.61e-09,621000000.0,245.0,25
21.0,21.9490852356,40.48,0.036,2.61e-09,621000000.0,245.0,25
22.0,21.95574855805,41.36,0.036,2.61e-09,621000000.0,245.0,25
23.0,21.9624118805,42.24,0.036,2.61e-09,621000000.0,245.0,25
24.0,21.96907520295,43.12,0.036,2.61e-09,621000000.0,245.0,25
25.0,21.9757385254,44.0,0.036,2.61e-09,621000000.0,245.0,25
26.0,21.98240184785,44.88,0.036,2.61e-09,621000000.0,245.0,25
27.0,21.9890651703,45.76,0.036,2.61e-09,621000000.0,245.0,25
28.0,22.00417842866,46.64,0.036,2.61e-09,621000000.0,245.0,25
29.0,22.01929168702,47.52,0.036,2.61e-09,621000000.0,245.0,25
30.0,22.03440494538,48.4,0.036,2.61e-09,621000000.0,245.0,25
31.0,22.04951820374,49.28,0.036,2.61e-09,621000000.0,245.0,25
32.0,22.0646314621,50.16,0.036,2.61e-09,621000000.0,245.0,25
33.0,22.07974472046,51.04,0.036,2.61e-09,621000000.0,245.0,25
34.0,22.09485797882,51.92,0.036,2.61e-09,621000000.0,245.0,25
35.0,22.10997123718,52.8,0.036,2.61e-09,621000000.0,245.0,25
36.0,22.12508449554,53.68,0.036,2.61e-09,621000000.0,245.0,25
37.0,22.1401977539,54.56,0.036,2.61e-09,621000000.0,245.0,25
38.0,22.16374912261,55.44,0.036,2.61e-09,621000000.0,245.0,25
39.0,22.18730049132,56.32,0.036,2.61e-09,621000000.0,245.0,25
40.0,22.21085186003,57.2,0.036,2.61e-09,621000000.0,245.0,25
41.0,22.23440322874,58.08,0.036,2.61e-09,621000000.0,245.0,25
42.0,22.25795459745,58.96,0.036,2.61e-09,621000000.0,245.0,25
43.0,22.28150596616,59.84,0.036,2.61e-09,621000000.0,245.0,25
44.0,22.30505733487,60.72,0.036,2.61e-09,621000000.0,245.0,25
45.0,22.32860870358,61.6,0.036,2.61e-09,621000000.0,245.0,25
46.0,22.35216007229,62.48,0.036,2.61e-09,621000000.0,245.0,25
47.0,22.375711441,63.36,0.036,2.61e-09,621000000.0,245.0,25
48.0,22.40254917141,64.24,0.036,2.61e-09,621000000.0,245.0,25
49.0,22.42938690182,65.12,0.036,2.61e-09,621000000.0,245.0,25
50.0,22.45622463223,66.0,0.036,2.61e-09,621000000.0,245.0,25
51.0,22.48306236264,62.94,0.036,2.61e-09,621000000.0,245.0,25
52.0,22.50990009305,62.88,0.036,2.61e-09,621000000.0,245.0,25
53.0,22.53673782346,62.82,0.036,2.61e-09,621000000.0,245.0,25
54.0,22.56357555387,62.76,0.036,2.61e-09,621000000.0,245.0,25
55.0,22.59041328428,62.7,0.036,2.61e-09,621000000.0,245.0,25
56.0,22.61725101469,62.64,0.036,2.61e-09,621000000.0,245.0,25
57.0,22.6440887451,62.58,0.036,2.61e-09,621000000.0,245.0,25
58.0,22.67085437773,62.52,0.036,2.61e-09,621000000.0,245.0,25
59.0,22.69762001036,62.46,0.036,2.61e-09,621000000.0,245.0,25
60.0,22.72438564299,62.4,0.036,2.61e-09,621000000.0,245.0,25
61.0,22.75115127562,62.34,0.036,2.61e-09,621000000.0,245.0,25
62.0,22.77791690825,62.28,0.036,2.61e-09,621000000.0,245.0,25
63.0,22.80468254088,62.22,0.036,2.61e-09,621000000.0,245.0,25
64.0,22.83144817351,62.16,0.036,2.61e-09,621000000.0,245.0,25
65.0,22.85821380614,62.1,0.036,2.61e-09,621000000.0,245.0,25
66.0,22.88497943877,62.04,0.036,2.61e-09,621000000.0,245.0,25
67.0,22.9117450714,61.98,0.036,2.61e-09,621000000.0,245.0,25
68.0,22.9377342224,61.92,0.036,2.61e-09,621000000.0,245.0,25
69.0,22.9637233734,61.86,0.036,2.61e-09,621000000.0,245.0,25
70.0,22.9897125244,61.8,0.036,2.61e-09,621000000.0,245.0,25
71.0,23.0157016754,61.74,0.036,2.61e-09,621000000.0,245.0,25
72.0,23.0416908264,61.68,0.036,2.61e-09,621000000.0,245.0,25
73.0,23.0676799774,61.62,0.036,2.61e-09,621000000.0,245.0,25
74.0,23.0936691284,61.56,0.036,2.61e-09,621000000.0,245.0,25
75.0,23.1196582794,61.5,0.036,2.61e-09,621000000.0,245.0,25
76.0,23.1456474304,61.44,0.036,2.61e-09,621000000.0,245.0,25
77.0,23.1716365814,61.38,0.036,2.61e-09,621000000.0,245.0,25
78.0,23.19672126768,61.32,0.036,2.61e-09,621000000.0,245.0,25
79.0,23.22180595396,61.26,0.036,2.61e-09,621000000.0,245.0,25
80.0,23.24689064024,61.2,0.036,2.61e-09,621000000.0,245.0,25
81.0,23.27197532652,61.14,0.036,2.61e-09,621000000.0,245.0,25
82.0,23.2970600128,61.08,0.036,2.61e-09,621000000.0,245.0,25
83.0,23.32214469908,61.02,0.036,2.61e-09,621000000.0,245.0,25
84.0,23.34722938536,60.96,0.036,2.61e-09,621000000.0,245.0,25
85.0,23.37231407164,60.9,0.036,2.61e-09,621000000.0,245.0,25
86.0,23.39739875792,60.84,0.036,2.61e-09,621000000.0,245.0,25
87.0,23.4224834442,60.78,0.036,2.61e-09,621000000.0,245.0,25
88.0,23.44664096831,60.72,0.036,2.61e-09,621000000.0,245.0,25
89.0,23.47079849242,60.66,0.036,2.61e-09,621000000.0,245.0,25
90.0,23.49495601653,60.6,0.036,2.61e-09,621000000.0,245.0,25
91.0,23.51911354064,60.54,0.036,2.61e-09,621000000.0,245.0,25
92.0,23.54327106475,60.48,0.036,2.61e-09,621000000.0,245.0,25
93.0,23.56742858886,60.42,0.036,2.61e-09,621000000.0,245.0,25
94.0,23.59158611297,60.36,0.036,2.61e-09,621000000.0,245.0,25
95.0,23.61574363708,60.3,0.036,2.61e-09,621000000.0,245.0,25
96.0,23.63990116119,60.24,0.036,2.61e-09,621000000.0,245.0,25
97.0,23.6640586853,60.18,0.036,2.61e-09,621000000.0,245.0,25
98.0,23.6877128601,60.12,0.036,2.61e-09,621000000.0,245.0,25
99.0,23.7113670349,60.06,0.036,2.61e-09,621000000.0,245.0,25
100.0,23.7350212097,60.0,0.036,2.61e-09,621000000.0,245.0,25
101.0,23.7586753845,60,0.036,2.61e-09,621000000.0,245.0,25
102.0,23.7823295593,60,0.036,2.61e-09,621000000.0,245.0,25
103.0,23.8059837341,60,0.036,2.61e-09,621000000.0,245.0,25
104.0,23.8296379089,60,0.036,2.61e-09,621000000.0,245.0,25
105.0,23.8532920837,60,0.036,2.61e-09,621000000.0,245.0,25
106.0,23.8769462585,60,0.036,2.61e-09,621000000.0,245.0,25
107.0,23.9006004333,60,0.036,2.61e-09,621000000.0,245.0,25
108.0,23.92402992244,60,0.036,2.61e-09,621000000.0,245.0,25
109.0,23.94745941158,60,0.036,2.61e-09,621000000.0,245.0,25
110.0,23.97088890072,60,0.036,2.61e-09,621000000.0,245.0,25
111.0,23.99431838986,60,0.036,2.61e-09,621000000.0,245.0,25
112.0,24.017747879,60,0.036,2.61e-09,621000000.0,245.0,25
113.0,24.04117736814,60,0.036,2.61e-09,621000000.0,245.0,25
114.0,24.06460685728,60,0.036,2.61e-09,621000000.0,245.0,25
115.0,24.08803634642,60,0.036,2.61e-09,621000000.0,245.0,25
116.0,24.11146583556,60,0.036,2.61e-09,621000000.0,245.0,25
117.0,24.1348953247,60,0.036,2.61e-09,621000000.0,245.0,25
118.0,24.15815925598,60,0.036,2.61e-09,621000000.0,245.0,25
119.0,24.18142318726,60,0.036,2.61e-09,621000000.0,245.0,25
120.0,24.20468711854,60,0.036,2.61e-09,621000000.0,245.0,25
121.0,24.22795104982,60,0.036,2.61e-09,621000000.0,245.0,25
122.0,24.2512149811,60,0.036,2.61e-09,621000000.0,245.0,25
123.0,24.27447891238,60,0.036,2.61e-09,621000000.0,245.0,25
124.0,24.29774284366,60,0.036,2.61e-09,621000000.0,245.0,25
125.0,24.32100677494,60,0.036,2.61e-09,621000000.0,245.0,25
126.0,24.34427070622,60,0.036,2.61e-09,621000000.0,245.0,25
127.0,24.3675346375,60,0.036,2.61e-09,621000000.0,245.0,25
128.0,24.39064483647,60,0.036,2.61e-09,621000000.0,245.0,25
129.0,24.41375503544,60,0.036,2.61e-09,621000000.0,245.0,25
130.0,24.43686523441,60,0.036,2.61e-09,621000000.0,245.0,25
131.0,24.45997543338,60,0.036,2.61e-09,621000000.0,245.0,25
132.0,24.48308563235,60,0.036,2.61e-09,621000000.0,245.0,25
133.0,24.50619583132,60,0.036,2.61e-09,621000000.0,245.0,25
134.0,24.52930603029,60,0.036,2.61e-09,621000000.0,245.0,25
135.0,24.55241622926,60,0.036,2.61e-09,621000000.0,245.0,25
136.0,24.57552642823,60,0.036,2.61e-09,621000000.0,245.0,25
137.0,24.5986366272,60,0.036,2.61e-09,621000000.0,245.0,25
138.0,24.6215959549,60,0.036,2.61e-09,621000000.0,245.0,25
139.0,24.6445552826,60,0.036,2.61e-09,621000000.0,245.0,25
140.0,24.6675146103,60,0.036,2.61e-09,621000000.0,245.0,25
141.0,24.690473938,60,0.036,2.61e-09,621000000.0,245.0,25
142.0,24.7134332657,60,0.036,2.61e-09,621000000.0,245.0,25
143.0,24.7363925934,60,0.036,2.61e-09,621000000.0,245.0,25
144.0,24.7593519211,60,0.036,2.61e-09,621000000.0,245.0,25
145.0,24.7823112488,60,0.036,2.61e-09,621000000.0,245.0,25
146.0,24.8052705765,60,0.036,2.61e-09,621000000.0,245.0,25
147.0,24.8282299042,60,0.036,2.61e-09,621000000.0,245.0,25
148.0,24.85104007723,60,0.036,2.61e-09,621000000.0,245.0,25
149.0,24.87385025026,60,0.036,2.61e-09,621000000.0,245.0,25
150.0,24.89666042329,60,0.036,2.61e-09,621000000.0,245.0,25
151.0,24.91947059632,60,0.036,2.61e-09,621000000.0,245.0,25
152.0,24.94228076935,60,0.036,2.61e-09,621000000.0,245.0,25
153.0,24.96509094238,60,0.036,2.61e-09,621000000.0,245.0,25
154.0,24.98790111541,60,0.036,2.61e-09,621000000.0,245.0,25
155.0,25.01071128844,60,0.036,2.61e-09,621000000.0,245.0,25
156.0,25.03352146147,60,0.036,2.61e-09,621000000.0,245.0,25
157.0,25.0563316345,60,0.036,2.61e-09,621000000.0,245.0,25
158.0,25.07899379728,60,0.036,2.61e-09,621000000.0,245.0,25
159.0,25.10165596006,60,0.036,2.61e-09,621000000.0,245.0,25
160.0,25.12431812284,60,0.036,2.61e-09,621000000.0,245.0,25
161.0,25.14698028562,60,0.036,2.61e-09,621000000.0,245.0,25
162.0,25.1696424484,60,0.036,2.61e-09,621000000.0,245.0,25
163.0,25.19230461118,60,0.036,2.61e-09,621000000.0,245.0,25
164.0,25.21496677396,60,0.036,2.61e-09,621000000.0,245.0,25
165.0,25.23762893674,60,0.036,2.61e-09,621000000.0,245.0,25
166.0,25.26029109952,60,0.036,2.61e-09,621000000.0,245.0,25
167.0,25.2829532623,60,0.036,2.61e-09,621000000.0,245.0,25
168.0,25.3054683685,60,0.036,2.61e-09,621000000.0,245.0,25
169.0,25.3279834747,60,0.036,2.61e-09,621000000.0,245.0,25
170.0,25.3504985809,60,0.036,2.61e-09,621000000.0,245.0,25
171.0,25.3730136871,60,0.036,2.61e-09,621000000.0,245.0,25
172.0,25.3955287933,60,0.036,2.61e-09,621000000.0,245.0,25
173.0,25.4180438995,60,0.036,2.61e-09,621000000.0,245.0,25
174.0,25.4405590057,60,0.036,2.61e-09,621000000.0,245.0,25
175.0,25.4630741119,60,0.036,2.61e-09,621000000.0,245.0,25
176.0,25.4855892181,60,0.036,2.61e-09,621000000.0,245.0,25
177.0,25.5081043243,60,0.036,2.61e-09,621000000.0,245.0,25
178.0,25.5304733276,60,0.036,2.61e-09,621000000.0,245.0,25
179.0,25.5528423309,60,0.036,2.61e-09,621000000.0,245.0,25
180.0,25.5752113342,60,0.036,2.61e-09,621000000.0,245.0,25
181.0,25.5975803375,60,0.036,2.61e-09,621000000.0,245.0,25
182.0,25.6199493408,60,0.036,2.61e-09,621000000.0,245.0,25
183.0,25.6423183441,60,0.036,2.61e-09,621000000.0,245.0,25
184.0,25.6646873474,60,0.036,2.61e-09,621000000.0,245.0,25
185.0,25.6870563507,60,0.036,2.61e-09,621000000.0,245.0,25
186.0,25.709425354,60,0.036,2.61e-09,621000000.0,245.0,25
187.0,25.7317943573,60,0.036,2.61e-09,621000000.0,245.0,25
188.0,25.75401821136,60,0.036,2.61e-09,621000000.0,245.0,25
189.0,25.77624206542,60,0.036,2.61e-09,621000000.0,245.0,25
190.0,25.79846591948,60,0.036,2.61e-09,621000000.0,245.0,25
191.0,25.82068977354,60,0.036,2.61e-09,621000000.0,245.0,25
192.0,25.8429136276,60,0.036,2.61e-09,621000000.0,245.0,25
193.0,25.86513748166,60,0.036,2.61e-09,621000000.0,245.0,25
194.0,25.88736133572,60,0.036,2.61e-09,621000000.0,245.0,25
195.0,25.90958518978,60,0.036,2.61e-09,621000000.0,245.0,25
196.0,25.93180904384,60,0.036,2.61e-09,621000000.0,245.0,25
197.0,25.9540328979,60,0.036,2.61e-09,621000000.0,245.0,25
198.0,25.97611274715,60,0.036,2.61e-09,621000000.0,245.0,25
199.0,25.9981925964,60,0.036,2.61e-09,621000000.0,245.0,25
200.0,26.02027244565,60,0.036,2.61e-09,621000000.0,245.0,25
201.0,26.0423522949,60,0.036,2.61e-09,621000000.0,245.0,25
202.0,26.06443214415,60,0.036,2.61e-09,621000000.0,245.0,25
203.0,26.0865119934,60,0.036,2.61e-09,621000000.0,245.0,25
204.0,26.10859184265,60,0.036,2.61e-09,621000000.0,245.0,25
205.0,26.1306716919,60,0.036,2.61e-09,621000000.0,245.0,25
206.0,26.15275154115,60,0.036,2.61e-09,621000000.0,245.0,25
207.0,26.1748313904,60,0.036,2.61e-09,621000000.0,245.0,25
208.0,26.19676799776,60,0.036,2.61e-09,621000000.0,245.0,25
209.0,26.21870460512,60,0.036,2.61e-09,621000000.0,245.0,25
210.0,26.24064121248,60,0.036,2.61e-09,621000000.0,245.0,25
211.0,26.26257781984,60,0.036,2.61e-09,621000000.0,245.0,25
212.0,26.2845144272,60,0.036,2.61e-09,621000000.0,245.0,25
213.0,26.30645103456,60,0.036,2.61e-09,621000000.0,245.0,25
214.0,26.32838764192,60,0.036,2.61e-09,621000000.0,245.0,25
215.0,26.35032424928,60,0.036,2.61e-09,621000000.0,245.0,25
216.0,26.37226085664,60,0.036,2.61e-09,621000000.0,245.0,25
217.0,26.394197464,60,0.036,2.61e-09,621000000.0,245.0,25
218.0,26.41599178315,60,0.036,2.61e-09,621000000.0,245.0,25
219.0,26.4377861023,60,0.036,2.61e-09,621000000.0,245.0,25
220.0,26.45958042145,60,0.036,2.61e-09,621000000.0,245.0,25
221.0,26.4813747406,60,0.036,2.61e-09,621000000.0,245.0,25
222.0,26.50316905975,60,0.036,2.61e-09,621000000.0,245.0,25
223.0,26.5249633789,60,0.036,2.61e-09,621000000.0,245.0,25
224.0,26.54675769805,60,0.036,2.61e-09,621000000.0,245.0,25
225.0,26.5685520172,60,0.036,2.61e-09,621000000.0,245.0,25
226.0,26.59034633635,60,0.036,2.61e-09,621000000.0,245.0,25
227.0,26.6121406555,60,0.036,2.61e-09,621000000.0,245.0,25
228.0,26.63379364012,60,0.036,2.61e-09,621000000.0,245.0,25
229.0,26.65544662474,60,0.036,2.61e-09,621000000.0,245.0,25
230.0,26.67709960936,60,0.036,2.61e-09,621000000.0,245.0,25
231.0,26.69875259398,60,0.036,2.61e-09,621000000.0,245.0,25
232.0,26.7204055786,60,0.036,2.61e-09,621000000.0,245.0,25
233.0,26.74205856322,60,0.036,2.61e-09,621000000.0,245.0,25
234.0,26.76371154784,60,0.036,2.61e-09,621000000.0,245.0,25
235.0,26.78536453246,60,0.036,2.61e-09,621000000.0,245.0,25
236.0,26.80701751708,60,0.036,2.61e-09,621000000.0,245.0,25
237.0,26.8286705017,60,0.036,2.61e-09,621000000.0,245.0,25
238.0,26.85018310546,60,0.036,2.61e-09,621000000.0,245.0,25
239.0,26.87169570922,60,0.036,2.61e-09,621000000.0,245.0,25
240.0,26.89320831298,60,0.036,2.61e-09,621000000.0,245.0,25
241.0,26.91472091674,60,0.036,2.61e-09,621000000.0,245.0,25
242.0,26.9362335205,60,0.036,2.61e-09,621000000.0,245.0,25
243.0,26.95774612426,60,0.036,2.61e-09,621000000.0,245.0,25
244.0,26.97925872802,60,0.036,2.61e-09,621000000.0,245.0,25
245.0,27.00077133178,60,0.036,2.61e-09,621000000.0,245.0,25
246.0,27.02228393554,60,0.036,2.61e-09,621000000.0,245.0,25
247.0,27.0437965393,60,0.036,2.61e-09,621000000.0,245.0,25
248.0,27.06516952514,60,0.036,2.61e-09,621000000.0,245.0,25
249.0,27.08654251098,60,0.036,2.61e-09,621000000.0,245.0,25
250.0,27.10791549682,60,0.036,2.61e-09,621000000.0,245.0,25
251.0,27.12928848266,60,0.036,2.61e-09,621000000.0,245.0,25
252.0,27.1506614685,60,0.036,2.61e-09,621000000.0,245.0,25
253.0,27.17203445434,60,0.036,2.61e-09,621000000.0,245.0,25
254.0,27.19340744018,60,0.036,2.61e-09,621000000.0,245.0,25
255.0,27.21478042602,60,0.036,2.61e-09,621000000.0,245.0,25
256.0,27.23615341186,60,0.036,2.61e-09,621000000.0,245.0,25
257.0,27.2575263977,60,0.036,2.61e-09,621000000.0,245.0,25
258.0,27.27876091003,60,0.036,2.61e-09,621000000.0,245.0,25
259.0,27.29999542236,60,0.036,2.61e-09,621000000.0,245.0,25
260.0,27.32122993469,60,0.036,2.61e-09,621000000.0,245.0,25
261.0,27.34246444702,60,0.036,2.61e-09,621000000.0,245.0,25
262.0,27.36369895935,60,0.036,2.61e-09,621000000.0,245.0,25
263.0,27.38493347168,60,0.036,2.61e-09,621000000.0,245.0,25
264.0,27.40616798401,60,0.036,2.61e-09,621000000.0,245.0,25
265.0,27.42740249634,60,0.036,2.61e-09,621000000.0,245.0,25
266.0,27.44863700867,60,0.036,2.61e-09,621000000.0,245.0,25
267.0,27.469871521,60,0.036,2.61e-09,621000000.0,245.0,25
268.0,27.49096813202,60,0.036,2.61e-09,621000000.0,245.0,25
269.0,27.51206474304,60,0.036,2.61e-09,621000000.0,245.0,25
270.0,27.53316135406,60,0.036,2.61e-09,621000000.0,245.0,25
271.0,27.55425796508,60,0.036,2.61e-09,621000000.0,245.0,25
272.0,27.5753545761,60,0.036,2.61e-09,621000000.0,245.0,25
273.0,27.59645118712,60,0.036,2.61e-09,621000000.0,245.0,25
274.0,27.61754779814,60,0.036,2.61e-09,621000000.0,245.0,25
275.0,27.63864440916,60,0.036,2.61e-09,621000000.0,245.0,25
276.0,27.65974102018,60,0.036,2.61e-09,621000000.0,245.0,25
277.0,27.6808376312,60,0.036,2.61e-09,621000000.0,245.0,25
278.0,27.70179748533,60,0.036,2.61e-09,621000000.0,245.0,25
279.0,27.72275733946,60,0.036,2.61e-09,621000000.0,245.0,25
280.0,27.74371719359,60,0.036,2.61e-09,621000000.0,245.0,25
281.0,27.76467704772,60,0.036,2.61e-09,621000000.0,245.0,25
282.0,27.78563690185,60,0.036,2.61e-09,621000000.0,245.0,25
283.0,27.80659675598,60,0.036,2.61e-09,621000000.0,245.0,25
284.0,27.82755661011,60,0.036,2.61e-09,621000000.0,245.0,25
285.0,27.84851646424,60,0.036,2.61e-09,621000000.0,245.0,25
286.0,27.86947631837,60,0.036,2.61e-09,621000000.0,245.0,25
287.0,27.8904361725,60,0.036,2.61e-09,621000000.0,245.0,25
288.0,27.9112602234,60,0.036,2.61e-09,621000000.0,245.0,25
289.0,27.9320842743,60,0.036,2.61e-09,621000000.0,245.0,25
290.0,27.9529083252,60,0.036,2.61e-09,621000000.0,245.0,25
291.0,27.9737323761,60,0.036,2.61e-09,621000000.0,245.0,25
292.0,27.994556427,60,0.036,2.61e-09,621000000.0,245.0,25
293.0,28.0153804779,60,0.036,2.61e-09,621000000.0,245.0,25
294.0,28.0362045288,60,0.036,2.61e-09,621000000.0,245.0,25
295.0,28.0570285797,60,0.036,2.61e-09,621000000.0,245.0,25
296.0,28.0778526306,60,0.036,2.61e-09,621000000.0,245.0,25
297.0,28.0986766815,60,0.036,2.61e-09,621000000.0,245.0,25
298.0,28.11936569212,60,0.036,2.61e-09,621000000.0,245.0,25
299.0,28.14005470274,60,0.036,2.61e-09,621000000.0,245.0,25
300.0,28.16074371336,60,0.036,2.61e-09,621000000.0,245.0,25
301.0,28.18143272398,60,0.036,2.61e-09,621000000.0,245.0,25
302.0,28.2021217346,60,0.036,2.61e-09,621000000.0,245.0,25
303.0,28.22281074522,60,0.036,2.61e-09,621000000.0,245.0,25
304.0,28.24349975584,60,0.036,2.61e-09,621000000.0,245.0,25
305.0,28.26418876646,60,0.036,2.61e-09,621000000.0,245.0,25
306.0,28.28487777708,60,0.036,2.61e-09,621000000.0,245.0,25
307.0,28.3055667877,60,0.036,2.61e-09,621000000.0,245.0,25
308.0,28.32612152098,60,0.036,2.61e-09,621000000.0,245.0,25
309.0,28.34667625426,60,0.036,2.61e-09,621000000.0,245.0,25
310.0,28.36723098754,60,0.036,2.61e-09,621000000.0,245.0,25
311.0,28.38778572082,60,0.036,2.61e-09,621000000.0,245.0,25
312.0,28.4083404541,60,0.036,2.61e-09,621000000.0,245.0,25
313.0,28.42889518738,60,0.036,2.61e-09,621000000.0,245.0,25
314.0,28.44944992066,60,0.036,2.61e-09,621000000.0,245.0,25
315.0,28.47000465394,60,0.036,2.61e-09,621000000.0,245.0,25
316.0,28.49055938722,60,0.036,2.61e-09,621000000.0,245.0,25
317.0,28.5111141205,60,0.036,2.61e-09,621000000.0,245.0,25
318.0,28.53153553011,60,0.036,2.61e-09,621000000.0,245.0,25
319.0,28.55195693972,60,0.036,2.61e-09,621000000.0,245.0,25
320.0,28.57237834933,60,0.036,2.61e-09,621000000.0,245.0,25
321.0,28.59279975894,60,0.036,2.61e-09,621000000.0,245.0,25
322.0,28.61322116855,60,0.036,2.61e-09,621000000.0,245.0,25
323.0,28.63364257816,60,0.036,2.61e-09,621000000.0,245.0,25
324.0,28.65406398777,60,0.036,2.61e-09,621000000.0,245.0,25
325.0,28.67448539738,60,0.036,2.61e-09,621000000.0,245.0,25
326.0,28.69490680699,60,0.036,2.61e-09,621000000.0,245.0,25
327.0,28.7153282166,60,0.036,2.61e-09,621000000.0,245.0,25
328.0,28.73561725621,60,0.036,2.61e-09,621000000.0,245.0,25
329.0,28.75590629582,60,0.036,2.61e-09,621000000.0,245.0,25
330.0,28.77619533543,60,0.036,2.61e-09,621000000.0,245.0,25
331.0,28.79648437504,60,0.036,2.61e-09,621000000.0,245.0,25
