time,T_int,T_ext_1,Film_Coef,Density,Specific_Heat,Thermal_Conductivity,Radius
1.0,21.9974861145,22.88,0.036,2.71e-09,671000000.0,265.0,25
2.0,21.9925994873,23.76,0.036,2.71e-09,671000000.0,265.0,25
3.0,21.9858837128,24.64,0.036,2.71e-09,671000000.0,265.0,25
4.0,21.9779596329,25.52,0.036,2.71e-09,671000000.0,265.0,25
5.0,21.970035553,26.4,0.036,2.71e-09,671000000.0,265.0,25
6.0,21.9633870125,27.28,0.036,2.71e-09,671000000.0,265.0,25
7.0,21.956738472,28.16,0.036,2.71e-09,671000000.0,265.0,25
8.0,21.9500899315,29.04,0.036,2.71e-09,671000000.0,265.0,25
9.0,21.943441391,29.92,0.036,2.71e-09,671000000.0,265.0,25
10.0,21.94206643105,30.8,0.036,2.71e-09,671000000.0,265.0,25
11.0,21.9406914711,31.68,0.036,2.71e-09,671000000.0,265.0,25
12.0,21.93931651115,32.56,0.036,2.71e-09,671000000.0,265.0,25
13.0,21.9379415512,33.44,0.036,2.71e-09,671000000.0,265.0,25
14.0,21.93656659125,34.32,0.036,2.71e-09,671000000.0,265.0,25
15.0,21.9351916313,35.2,0.036,2.71e-09,671000000.0,265.0,25
16.0,21.93381667135,36.08,0.036,2.71e-09,671000000.0,265.0,25
17.0,21.9324417114,36.96,0.036,2.71e-09,671000000.0,265.0,25
18.0,21.93831024168,37.84,0.036,2.71e-09,671000000.0,265.0,25
19.0,21.94417877196,38.72,0.036,2.71e-09,671000000.0,265.0,25
20.0,21.95004730224,39.6,0.036,2.71e-09,671000000.0,265.0,25
21.0,21.95591583252,40.48,0.036,2.71e-09,671000000.0,265.0,25
22.0,21.9617843628,41.36,0.036,2.71e-09,671000000.0,265.0,25
23.0,21.96765289308,42.24,0.036,2.71e-09,671000000.0,265.0,25
24.0,21.97352142336,43.12,0.036,2.71e-09,671000000.0,265.0,25
25.0,21.97938995364,44.0,0.036,2.71e-09,671000000.0,265.0,25
26.0,21.98525848392,44.88,0.036,2.71e-09,671000000.0,265.0,25
27.0,21.9911270142,45.76,0.036,2.71e-09,671000000.0,265.0,25
28.0,22.0043300629,46.64,0.036,2.71e-09,671000000.0,265.0,25
29.0,22.0175331116,47.52,0.036,2.71e-09,671000000.0,265.0,25
30.0,22.0307361603,48.4,0.036,2.71e-09,671000000.0,265.0,25
31.0,22.043939209,49.28,0.036,2.71e-09,671000000.0,265.0,25
32.0,22.0571422577,50.16,0.036,2.71e-09,671000000.0,265.0,25
33.0,22.0703453064,51.04,0.036,2.71e-09,671000000.0,265.0,25
34.0,22.0835483551,51.92,0.036,2.71e-09,671000000.0,265.0,25
35.0,22.0967514038,52.8,0.036,2.71e-09,671000000.0,265.0,25
36.0,22.1099544525,53.68,0.036,2.71e-09,671000000.0,265.0,25
37.0,22.1231575012,54.56,0.036,2.71e-09,671000000.0,265.0,25
38.0,22.14368629454,55.44,0.036,2.71e-09,671000000.0,265.0,25
39.0,22.16421508788,56.32,0.036,2.71e-09,671000000.0,265.0,25
40.0,22.18474388122,57.2,0.036,2.71e-09,671000000.0,265.0,25
41.0,22.20527267456,58.08,0.036,2.71e-09,671000000.0,265.0,25
42.0,22.2258014679,58.96,0.036,2.71e-09,671000000.0,265.0,25
43.0,22.24633026124,59.84,0.036,2.71e-09,671000000.0,265.0,25
44.0,22.26685905458,60.72,0.036,2.71e-09,671000000.0,265.0,25
45.0,22.28738784792,61.6,0.036,2.71e-09,671000000.0,265.0,25
46.0,22.30791664126,62.48,0.036,2.71e-09,671000000.0,265.0,25
47.0,22.3284454346,63.36,0.036,2.71e-09,671000000.0,265.0,25
48.0,22.3517839432,64.24,0.036,2.71e-09,671000000.0,265.0,25
49.0,22.3751224518,65.12,0.036,2.71e-09,671000000.0,265.0,25
50.0,22.3984609604,66.0,0.036,2.71e-09,671000000.0,265.0,25
51.0,22.421799469,62.94,0.036,2.71e-09,671000000.0,265.0,25
52.0,22.4451379776,62.88,0.036,2.71e-09,671000000.0,265.0,25
53.0,22.4684764862,62.82,0.036,2.71e-09,671000000.0,265.0,25
54.0,22.4918149948,62.76,0.036,2.71e-09,671000000.0,265.0,25
55.0,22.5151535034,62.7,0.036,2.71e-09,671000000.0,265.0,25
56.0,22.538492012,62.64,0.036,2.71e-09,671000000.0,265.0,25
57.0,22.5618305206,62.58,0.036,2.71e-09,671000000.0,265.0,25
58.0,22.58508243558,62.52,0.036,2.71e-09,671000000.0,265.0,25
59.0,22.60833435056,62.46,0.036,2.71e-09,671000000.0,265.0,25
60.0,22.63158626554,62.4,0.036,2.71e-09,671000000.0,265.0,25
61.0,22.65483818052,62.34,0.036,2.71e-09,671000000.0,265.0,25
62.0,22.6780900955,62.28,0.036,2.71e-09,671000000.0,265.0,25
63.0,22.70134201048,62.22,0.036,2.71e-09,671000000.0,265.0,25
64.0,22.72459392546,62.16,0.036,2.71e-09,671000000.0,265.0,25
65.0,22.74784584044,62.1,0.036,2.71e-09,671000000.0,265.0,25
66.0,22.77109775542,62.04,0.036,2.71e-09,671000000.0,265.0,25
67.0,22.7943496704,61.98,0.036,2.71e-09,671000000.0,265.0,25
68.0,22.81693401336,61.92,0.036,2.71e-09,671000000.0,265.0,25
69.0,22.83951835632,61.86,0.036,2.71e-09,671000000.0,265.0,25
70.0,22.86210269928,61.8,0.036,2.71e-09,671000000.0,265.0,25
71.0,22.88468704224,61.74,0.036,2.71e-09,671000000.0,265.0,25
72.0,22.9072713852,61.68,0.036,2.71e-09,671000000.0,265.0,25
73.0,22.92985572816,61.62,0.036,2.71e-09,671000000.0,265.0,25
74.0,22.95244007112,61.56,0.036,2.71e-09,671000000.0,265.0,25
75.0,22.97502441408,61.5,0.036,2.71e-09,671000000.0,265.0,25
76.0,22.99760875704,61.44,0.036,2.71e-09,671000000.0,265.0,25
77.0,23.0201931,61.38,0.036,2.71e-09,671000000.0,265.0,25
78.0,23.04200859072,61.32,0.036,2.71e-09,671000000.0,265.0,25
79.0,23.06382408144,61.26,0.036,2.71e-09,671000000.0,265.0,25
80.0,23.08563957216,61.2,0.036,2.71e-09,671000000.0,265.0,25
81.0,23.10745506288,61.14,0.036,2.71e-09,671000000.0,265.0,25
82.0,23.1292705536,61.08,0.036,2.71e-09,671000000.0,265.0,25
83.0,23.15108604432,61.02,0.036,2.71e-09,671000000.0,265.0,25
84.0,23.17290153504,60.96,0.036,2.71e-09,671000000.0,265.0,25
85.0,23.19471702576,60.9,0.036,2.71e-09,671000000.0,265.0,25
86.0,23.21653251648,60.84,0.036,2.71e-09,671000000.0,265.0,25
87.0,23.2383480072,60.78,0.036,2.71e-09,671000000.0,265.0,25
88.0,23.25937671661,60.72,0.036,2.71e-09,671000000.0,265.0,25
89.0,23.28040542602,60.66,0.036,2.71e-09,671000000.0,265.0,25
90.0,23.30143413543,60.6,0.036,2.71e-09,671000000.0,265.0,25
91.0,23.32246284484,60.54,0.036,2.71e-09,671000000.0,265.0,25
92.0,23.34349155425,60.48,0.036,2.71e-09,671000000.0,265.0,25
93.0,23.36452026366,60.42,0.036,2.71e-09,671000000.0,265.0,25
94.0,23.38554897307,60.36,0.036,2.71e-09,671000000.0,265.0,25
95.0,23.40657768248,60.3,0.036,2.71e-09,671000000.0,265.0,25
96.0,23.42760639189,60.24,0.036,2.71e-09,671000000.0,265.0,25
97.0,23.4486351013,60.18,0.036,2.71e-09,671000000.0,265.0,25
98.0,23.46924915312,60.12,0.036,2.71e-09,671000000.0,265.0,25
99.0,23.48986320494,60.06,0.036,2.71e-09,671000000.0,265.0,25
100.0,23.51047725676,60.0,0.036,2.71e-09,671000000.0,265.0,25
101.0,23.53109130858,60,0.036,2.71e-09,671000000.0,265.0,25
102.0,23.5517053604,60,0.036,2.71e-09,671000000.0,265.0,25
103.0,23.57231941222,60,0.036,2.71e-09,671000000.0,265.0,25
104.0,23.59293346404,60,0.036,2.71e-09,671000000.0,265.0,25
105.0,23.61354751586,60,0.036,2.71e-09,671000000.0,265.0,25
106.0,23.63416156768,60,0.036,2.71e-09,671000000.0,265.0,25
107.0,23.6547756195,60,0.036,2.71e-09,671000000.0,265.0,25
108.0,23.67521533965,60,0.036,2.71e-09,671000000.0,265.0,25
109.0,23.6956550598,60,0.036,2.71e-09,671000000.0,265.0,25
110.0,23.71609477995,60,0.036,2.71e-09,671000000.0,265.0,25
111.0,23.7365345001,60,0.036,2.71e-09,671000000.0,265.0,25
112.0,23.75697422025,60,0.036,2.71e-09,671000000.0,265.0,25
113.0,23.7774139404,60,0.036,2.71e-09,671000000.0,265.0,25
114.0,23.79785366055,60,0.036,2.71e-09,671000000.0,265.0,25
115.0,23.8182933807,60,0.036,2.71e-09,671000000.0,265.0,25
116.0,23.83873310085,60,0.036,2.71e-09,671000000.0,265.0,25
117.0,23.859172821,60,0.036,2.71e-09,671000000.0,265.0,25
118.0,23.87948703762,60,0.036,2.71e-09,671000000.0,265.0,25
119.0,23.89980125424,60,0.036,2.71e-09,671000000.0,265.0,25
120.0,23.92011547086,60,0.036,2.71e-09,671000000.0,265.0,25
121.0,23.94042968748,60,0.036,2.71e-09,671000000.0,265.0,25
122.0,23.9607439041,60,0.036,2.71e-09,671000000.0,265.0,25
123.0,23.98105812072,60,0.036,2.71e-09,671000000.0,265.0,25
124.0,24.00137233734,60,0.036,2.71e-09,671000000.0,265.0,25
125.0,24.02168655396,60,0.036,2.71e-09,671000000.0,265.0,25
126.0,24.04200077058,60,0.036,2.71e-09,671000000.0,265.0,25
127.0,24.0623149872,60,0.036,2.71e-09,671000000.0,265.0,25
128.0,24.08251285555,60,0.036,2.71e-09,671000000.0,265.0,25
129.0,24.1027107239,60,0.036,2.71e-09,671000000.0,265.0,25
130.0,24.12290859225,60,0.036,2.71e-09,671000000.0,265.0,25
131.0,24.1431064606,60,0.036,2.71e-09,671000000.0,265.0,25
132.0,24.16330432895,60,0.036,2.71e-09,671000000.0,265.0,25
133.0,24.1835021973,60,0.036,2.71e-09,671000000.0,265.0,25
134.0,24.20370006565,60,0.036,2.71e-09,671000000.0,265.0,25
135.0,24.223897934,60,0.036,2.71e-09,671000000.0,265.0,25
136.0,24.24409580235,60,0.036,2.71e-09,671000000.0,265.0,25
137.0,24.2642936707,60,0.036,2.71e-09,671000000.0,265.0,25
138.0,24.28437728886,60,0.036,2.71e-09,671000000.0,265.0,25
139.0,24.30446090702,60,0.036,2.71e-09,671000000.0,265.0,25
140.0,24.32454452518,60,0.036,2.71e-09,671000000.0,265.0,25
141.0,24.34462814334,60,0.036,2.71e-09,671000000.0,265.0,25
142.0,24.3647117615,60,0.036,2.71e-09,671000000.0,265.0,25
143.0,24.38479537966,60,0.036,2.71e-09,671000000.0,265.0,25
144.0,24.40487899782,60,0.036,2.71e-09,671000000.0,265.0,25
145.0,24.42496261598,60,0.036,2.71e-09,671000000.0,265.0,25
146.0,24.44504623414,60,0.036,2.71e-09,671000000.0,265.0,25
147.0,24.4651298523,60,0.036,2.71e-09,671000000.0,265.0,25
148.0,24.48510017395,60,0.036,2.71e-09,671000000.0,265.0,25
149.0,24.5050704956,60,0.036,2.71e-09,671000000.0,265.0,25
150.0,24.52504081725,60,0.036,2.71e-09,671000000.0,265.0,25
151.0,24.5450111389,60,0.036,2.71e-09,671000000.0,265.0,25
152.0,24.56498146055,60,0.036,2.71e-09,671000000.0,265.0,25
153.0,24.5849517822,60,0.036,2.71e-09,671000000.0,265.0,25
154.0,24.60492210385,60,0.036,2.71e-09,671000000.0,265.0,25
155.0,24.6248924255,60,0.036,2.71e-09,671000000.0,265.0,25
156.0,24.64486274715,60,0.036,2.71e-09,671000000.0,265.0,25
157.0,24.6648330688,60,0.036,2.71e-09,671000000.0,265.0,25
158.0,24.68469123836,60,0.036,2.71e-09,671000000.0,265.0,25
159.0,24.70454940792,60,0.036,2.71e-09,671000000.0,265.0,25
160.0,24.72440757748,60,0.036,2.71e-09,671000000.0,265.0,25
161.0,24.74426574704,60,0.036,2.71e-09,671000000.0,265.0,25
162.0,24.7641239166,60,0.036,2.71e-09,671000000.0,265.0,25
163.0,24.78398208616,60,0.036,2.71e-09,671000000.0,265.0,25
164.0,24.80384025572,60,0.036,2.71e-09,671000000.0,265.0,25
165.0,24.82369842528,60,0.036,2.71e-09,671000000.0,265.0,25
166.0,24.84355659484,60,0.036,2.71e-09,671000000.0,265.0,25
167.0,24.8634147644,60,0.036,2.71e-09,671000000.0,265.0,25
168.0,24.88316116333,60,0.036,2.71e-09,671000000.0,265.0,25
169.0,24.90290756226,60,0.036,2.71e-09,671000000.0,265.0,25
170.0,24.92265396119,60,0.036,2.71e-09,671000000.0,265.0,25
171.0,24.94240036012,60,0.036,2.71e-09,671000000.0,265.0,25
172.0,24.96214675905,60,0.036,2.71e-09,671000000.0,265.0,25
173.0,24.98189315798,60,0.036,2.71e-09,671000000.0,265.0,25
174.0,25.00163955691,60,0.036,2.71e-09,671000000.0,265.0,25
175.0,25.02138595584,60,0.036,2.71e-09,671000000.0,265.0,25
176.0,25.04113235477,60,0.036,2.71e-09,671000000.0,265.0,25
177.0,25.0608787537,60,0.036,2.71e-09,671000000.0,265.0,25
178.0,25.08051433567,60,0.036,2.71e-09,671000000.0,265.0,25
179.0,25.10014991764,60,0.036,2.71e-09,671000000.0,265.0,25
180.0,25.11978549961,60,0.036,2.71e-09,671000000.0,265.0,25
181.0,25.13942108158,60,0.036,2.71e-09,671000000.0,265.0,25
182.0,25.15905666355,60,0.036,2.71e-09,671000000.0,265.0,25
183.0,25.17869224552,60,0.036,2.71e-09,671000000.0,265.0,25
184.0,25.19832782749,60,0.036,2.71e-09,671000000.0,265.0,25
185.0,25.21796340946,60,0.036,2.71e-09,671000000.0,265.0,25
186.0,25.23759899143,60,0.036,2.71e-09,671000000.0,265.0,25
187.0,25.2572345734,60,0.036,2.71e-09,671000000.0,265.0,25
188.0,25.27675971988,60,0.036,2.71e-09,671000000.0,265.0,25
189.0,25.29628486636,60,0.036,2.71e-09,671000000.0,265.0,25
190.0,25.31581001284,60,0.036,2.71e-09,671000000.0,265.0,25
191.0,25.33533515932,60,0.036,2.71e-09,671000000.0,265.0,25
192.0,25.3548603058,60,0.036,2.71e-09,671000000.0,265.0,25
193.0,25.37438545228,60,0.036,2.71e-09,671000000.0,265.0,25
194.0,25.39391059876,60,0.036,2.71e-09,671000000.0,265.0,25
195.0,25.41343574524,60,0.036,2.71e-09,671000000.0,265.0,25
196.0,25.43296089172,60,0.036,2.71e-09,671000000.0,265.0,25
197.0,25.4524860382,60,0.036,2.71e-09,671000000.0,265.0,25
198.0,25.4719013214,60,0.036,2.71e-09,671000000.0,265.0,25
199.0,25.4913166046,60,0.036,2.71e-09,671000000.0,265.0,25
200.0,25.5107318878,60,0.036,2.71e-09,671000000.0,265.0,25
201.0,25.530147171,60,0.036,2.71e-09,671000000.0,265.0,25
202.0,25.5495624542,60,0.036,2.71e-09,671000000.0,265.0,25
203.0,25.5689777374,60,0.036,2.71e-09,671000000.0,265.0,25
204.0,25.5883930206,60,0.036,2.71e-09,671000000.0,265.0,25
205.0,25.6078083038,60,0.036,2.71e-09,671000000.0,265.0,25
206.0,25.627223587,60,0.036,2.71e-09,671000000.0,265.0,25
207.0,25.6466388702,60,0.036,2.71e-09,671000000.0,265.0,25
208.0,25.66594505307,60,0.036,2.71e-09,671000000.0,265.0,25
209.0,25.68525123594,60,0.036,2.71e-09,671000000.0,265.0,25
210.0,25.70455741881,60,0.036,2.71e-09,671000000.0,265.0,25
211.0,25.72386360168,60,0.036,2.71e-09,671000000.0,265.0,25
212.0,25.74316978455,60,0.036,2.71e-09,671000000.0,265.0,25
213.0,25.76247596742,60,0.036,2.71e-09,671000000.0,265.0,25
214.0,25.78178215029,60,0.036,2.71e-09,671000000.0,265.0,25
215.0,25.80108833316,60,0.036,2.71e-09,671000000.0,265.0,25
216.0,25.82039451603,60,0.036,2.71e-09,671000000.0,265.0,25
217.0,25.8397006989,60,0.036,2.71e-09,671000000.0,265.0,25
218.0,25.85889854435,60,0.036,2.71e-09,671000000.0,265.0,25
219.0,25.8780963898,60,0.036,2.71e-09,671000000.0,265.0,25
220.0,25.89729423525,60,0.036,2.71e-09,671000000.0,265.0,25
221.0,25.9164920807,60,0.036,2.71e-09,671000000.0,265.0,25
222.0,25.93568992615,60,0.036,2.71e-09,671000000.0,265.0,25
223.0,25.9548877716,60,0.036,2.71e-09,671000000.0,265.0,25
224.0,25.97408561705,60,0.036,2.71e-09,671000000.0,265.0,25
225.0,25.9932834625,60,0.036,2.71e-09,671000000.0,265.0,25
226.0,26.01248130795,60,0.036,2.71e-09,671000000.0,265.0,25
227.0,26.0316791534,60,0.036,2.71e-09,671000000.0,265.0,25
228.0,26.05076904293,60,0.036,2.71e-09,671000000.0,265.0,25
229.0,26.06985893246,60,0.036,2.71e-09,671000000.0,265.0,25
230.0,26.08894882199,60,0.036,2.71e-09,671000000.0,265.0,25
231.0,26.10803871152,60,0.036,2.71e-09,671000000.0,265.0,25
232.0,26.12712860105,60,0.036,2.71e-09,671000000.0,265.0,25
233.0,26.14621849058,60,0.036,2.71e-09,671000000.0,265.0,25
234.0,26.16530838011,60,0.036,2.71e-09,671000000.0,265.0,25
235.0,26.18439826964,60,0.036,2.71e-09,671000000.0,265.0,25
236.0,26.20348815917,60,0.036,2.71e-09,671000000.0,265.0,25
237.0,26.2225780487,60,0.036,2.71e-09,671000000.0,265.0,25
238.0,26.2415605545,60,0.036,2.71e-09,671000000.0,265.0,25
239.0,26.2605430603,60,0.036,2.71e-09,671000000.0,265.0,25
240.0,26.2795255661,60,0.036,2.71e-09,671000000.0,265.0,25
241.0,26.2985080719,60,0.036,2.71e-09,671000000.0,265.0,25
242.0,26.3174905777,60,0.036,2.71e-09,671000000.0,265.0,25
243.0,26.3364730835,60,0.036,2.71e-09,671000000.0,265.0,25
244.0,26.3554555893,60,0.036,2.71e-09,671000000.0,265.0,25
245.0,26.3744380951,60,0.036,2.71e-09,671000000.0,265.0,25
246.0,26.3934206009,60,0.036,2.71e-09,671000000.0,265.0,25
247.0,26.4124031067,60,0.036,2.71e-09,671000000.0,265.0,25
248.0,26.43127899171,60,0.036,2.71e-09,671000000.0,265.0,25
249.0,26.45015487672,60,0.036,2.71e-09,671000000.0,265.0,25
250.0,26.46903076173,60,0.036,2.71e-09,671000000.0,265.0,25
251.0,26.48790664674,60,0.036,2.71e-09,671000000.0,265.0,25
252.0,26.50678253175,60,0.036,2.71e-09,671000000.0,265.0,25
253.0,26.52565841676,60,0.036,2.71e-09,671000000.0,265.0,25
254.0,26.54453430177,60,0.036,2.71e-09,671000000.0,265.0,25
255.0,26.56341018678,60,0.036,2.71e-09,671000000.0,265.0,25
256.0,26.58228607179,60,0.036,2.71e-09,671000000.0,265.0,25
257.0,26.6011619568,60,0.036,2.71e-09,671000000.0,265.0,25
258.0,26.61993179322,60,0.036,2.71e-09,671000000.0,265.0,25
259.0,26.63870162964,60,0.036,2.71e-09,671000000.0,265.0,25
260.0,26.65747146606,60,0.036,2.71e-09,671000000.0,265.0,25
261.0,26.67624130248,60,0.036,2.71e-09,671000000.0,265.0,25
262.0,26.6950111389,60,0.036,2.71e-09,671000000.0,265.0,25
263.0,26.71378097532,60,0.036,2.71e-09,671000000.0,265.0,25
264.0,26.73255081174,60,0.036,2.71e-09,671000000.0,265.0,25
265.0,26.75132064816,60,0.036,2.71e-09,671000000.0,265.0,25
266.0,26.77009048458,60,0.036,2.71e-09,671000000.0,265.0,25
267.0,26.788860321,60,0.036,2.71e-09,671000000.0,265.0,25
268.0,26.80752468105,60,0.036,2.71e-09,671000000.0,265.0,25
269.0,26.8261890411,60,0.036,2.71e-09,671000000.0,265.0,25
270.0,26.84485340115,60,0.036,2.71e-09,671000000.0,265.0,25
271.0,26.8635177612,60,0.036,2.71e-09,671000000.0,265.0,25
272.0,26.88218212125,60,0.036,2.71e-09,671000000.0,265.0,25
273.0,26.9008464813,60,0.036,2.71e-09,671000000.0,265.0,25
274.0,26.91951084135,60,0.036,2.71e-09,671000000.0,265.0,25
275.0,26.9381752014,60,0.036,2.71e-09,671000000.0,265.0,25
276.0,26.95683956145,60,0.036,2.71e-09,671000000.0,265.0,25
277.0,26.9755039215,60,0.036,2.71e-09,671000000.0,265.0,25
278.0,26.99406337737,60,0.036,2.71e-09,671000000.0,265.0,25
279.0,27.01262283324,60,0.036,2.71e-09,671000000.0,265.0,25
280.0,27.03118228911,60,0.036,2.71e-09,671000000.0,265.0,25
281.0,27.04974174498,60,0.036,2.71e-09,671000000.0,265.0,25
282.0,27.06830120085,60,0.036,2.71e-09,671000000.0,265.0,25
283.0,27.08686065672,60,0.036,2.71e-09,671000000.0,265.0,25
284.0,27.10542011259,60,0.036,2.71e-09,671000000.0,265.0,25
285.0,27.12397956846,60,0.036,2.71e-09,671000000.0,265.0,25
286.0,27.14253902433,60,0.036,2.71e-09,671000000.0,265.0,25
287.0,27.1610984802,60,0.036,2.71e-09,671000000.0,265.0,25
288.0,27.1795536041,60,0.036,2.71e-09,671000000.0,265.0,25
289.0,27.198008728,60,0.036,2.71e-09,671000000.0,265.0,25
290.0,27.2164638519,60,0.036,2.71e-09,671000000.0,265.0,25
291.0,27.2349189758,60,0.036,2.71e-09,671000000.0,265.0,25
292.0,27.2533740997,60,0.036,2.71e-09,671000000.0,265.0,25
293.0,27.2718292236,60,0.036,2.71e-09,671000000.0,265.0,25
294.0,27.2902843475,60,0.036,2.71e-09,671000000.0,265.0,25
295.0,27.3087394714,60,0.036,2.71e-09,671000000.0,265.0,25
296.0,27.3271945953,60,0.036,2.71e-09,671000000.0,265.0,25
297.0,27.3456497192,60,0.036,2.71e-09,671000000.0,265.0,25
298.0,27.36400108334,60,0.036,2.71e-09,671000000.0,265.0,25
299.0,27.38235244748,60,0.036,2.71e-09,671000000.0,265.0,25
300.0,27.40070381162,60,0.036,2.71e-09,671000000.0,265.0,25
301.0,27.41905517576,60,0.036,2.71e-09,671000000.0,265.0,25
302.0,27.4374065399,60,0.036,2.71e-09,671000000.0,265.0,25
303.0,27.45575790404,60,0.036,2.71e-09,671000000.0,265.0,25
304.0,27.47410926818,60,0.036,2.71e-09,671000000.0,265.0,25
305.0,27.49246063232,60,0.036,2.71e-09,671000000.0,265.0,25
306.0,27.51081199646,60,0.036,2.71e-09,671000000.0,265.0,25
307.0,27.5291633606,60,0.036,2.71e-09,671000000.0,265.0,25
308.0,27.54741172791,60,0.036,2.71e-09,671000000.0,265.0,25
309.0,27.56566009522,60,0.036,2.71e-09,671000000.0,265.0,25
310.0,27.58390846253,60,0.036,2.71e-09,671000000.0,265.0,25
311.0,27.60215682984,60,0.036,2.71e-09,671000000.0,265.0,25
312.0,27.62040519715,60,0.036,2.71e-09,671000000.0,265.0,25
313.0,27.63865356446,60,0.036,2.71e-09,671000000.0,265.0,25
314.0,27.65690193177,60,0.036,2.71e-09,671000000.0,265.0,25
315.0,27.67515029908,60,0.036,2.71e-09,671000000.0,265.0,25
316.0,27.69339866639,60,0.036,2.71e-09,671000000.0,265.0,25
317.0,27.7116470337,60,0.036,2.71e-09,671000000.0,265.0,25
318.0,27.72979278565,60,0.036,2.71e-09,671000000.0,265.0,25
319.0,27.7479385376,60,0.036,2.71e-09,671000000.0,265.0,25
320.0,27.76608428955,60,0.036,2.71e-09,671000000.0,265.0,25
321.0,27.7842300415,60,0.036,2.71e-09,671000000.0,265.0,25
322.0,27.80237579345,60,0.036,2.71e-09,671000000.0,265.0,25
323.0,27.8205215454,60,0.036,2.71e-09,671000000.0,265.0,25
324.0,27.83866729735,60,0.036,2.71e-09,671000000.0,265.0,25
325.0,27.8568130493,60,0.036,2.71e-09,671000000.0,265.0,25
326.0,27.87495880125,60,0.036,2.71e-09,671000000.0,265.0,25
327.0,27.8931045532,60,0.036,2.71e-09,671000000.0,265.0,25
328.0,27.911148262,60,0.036,2.71e-09,671000000.0,265.0,25
329.0,27.9291919708,60,0.036,2.71e-09,671000000.0,265.0,25
330.0,27.9472356796,60,0.036,2.71e-09,671000000.0,265.0,25
331.0,27.9652793884,60,0.036,2.71e-09,671000000.0,265.0,25
