time,T_int,T_ext_1,Film_Coef,Density,Specific_Heat,Thermal_Conductivity,Radius
1.0,21.9811267853,22.88,0.036,7.47e-09,386000000.0,132.0,25
2.0,21.9662647247,23.76,0.036,7.47e-09,386000000.0,132.0,25
3.0,21.9538211823,24.64,0.036,7.47e-09,386000000.0,132.0,25
4.0,21.94422817235,25.52,0.036,7.47e-09,386000000.0,132.0,25
5.0,21.9346351624,26.4,0.036,7.47e-09,386000000.0,132.0,25
6.0,21.929014205975,27.28,0.036,7.47e-09,386000000.0,132.0,25
7.0,21.92339324955,28.16,0.036,7.47e-09,386000000.0,132.0,25
8.0,21.917772293125,29.04,0.036,7.47e-09,386000000.0,132.0,25
9.0,21.9121513367,29.92,0.036,7.47e-09,386000000.0,132.0,25
10.0,21.9133241176875,30.8,0.036,7.47e-09,386000000.0,132.0,25
11.0,21.914496898675,31.68,0.036,7.47e-09,386000000.0,132.0,25
12.0,21.9156696796625,32.56,0.036,7.47e-09,386000000.0,132.0,25
13.0,21.91684246065,33.44,0.036,7.47e-09,386000000.0,132.0,25
14.0,21.9180152416375,34.32,0.036,7.47e-09,386000000.0,132.0,25
15.0,21.919188022625,35.2,0.036,7.47e-09,386000000.0,132.0,25
16.0,21.9203608036125,36.08,0.036,7.47e-09,386000000.0,132.0,25
17.0,21.9215335846,36.96,0.036,7.47e-09,386000000.0,132.0,25
18.0,21.93088760376,37.84,0.036,7.47e-09,386000000.0,132.0,25
19.0,21.94024162292,38.72,0.036,7.47e-09,386000000.0,132.0,25
20.0,21.94959564208,39.6,0.036,7.47e-09,386000000.0,132.0,25
21.0,21.95894966124,40.48,0.036,7.47e-09,386000000.0,132.0,25
22.0,21.9683036804,41.36,0.036,7.47e-09,386000000.0,132.0,25
23.0,21.97765769956,42.24,0.036,7.47e-09,386000000.0,132.0,25
24.0,21.98701171872,43.12,0.036,7.47e-09,386000000.0,132.0,25
25.0,21.99636573788,44.0,0.036,7.47e-09,386000000.0,132.0,25
26.0,22.00571975704,44.88,0.036,7.47e-09,386000000.0,132.0,25
27.0,22.0150737762,45.76,0.036,7.47e-09,386000000.0,132.0,25
28.0,22.03254089351,46.64,0.036,7.47e-09,386000000.0,132.0,25
29.0,22.05000801082,47.52,0.036,7.47e-09,386000000.0,132.0,25
30.0,22.06747512813,48.4,0.036,7.47e-09,386000000.0,132.0,25
31.0,22.08494224544,49.28,0.036,7.47e-09,386000000.0,132.0,25
32.0,22.10240936275,50.16,0.036,7.47e-09,386000000.0,132.0,25
33.0,22.11987648006,51.04,0.036,7.47e-09,386000000.0,132.0,25
34.0,22.13734359737,51.92,0.036,7.47e-09,386000000.0,132.0,25
35.0,22.15481071468,52.8,0.036,7.47e-09,386000000.0,132.0,25
36.0,22.17227783199,53.68,0.036,7.47e-09,386000000.0,132.0,25
37.0,22.1897449493,54.56,0.036,7.47e-09,386000000.0,132.0,25
38.0,22.21529121395,55.44,0.036,7.47e-09,386000000.0,132.0,25
39.0,22.2408374786,56.32,0.036,7.47e-09,386000000.0,132.0,25
40.0,22.26638374325,57.2,0.036,7.47e-09,386000000.0,132.0,25
41.0,22.2919300079,58.08,0.036,7.47e-09,386000000.0,132.0,25
42.0,22.31747627255,58.96,0.036,7.47e-09,386000000.0,132.0,25
43.0,22.3430225372,59.84,0.036,7.47e-09,386000000.0,132.0,25
44.0,22.36856880185,60.72,0.036,7.47e-09,386000000.0,132.0,25
45.0,22.3941150665,61.6,0.036,7.47e-09,386000000.0,132.0,25
46.0,22.41966133115,62.48,0.036,7.47e-09,386000000.0,132.0,25
47.0,22.4452075958,63.36,0.036,7.47e-09,386000000.0,132.0,25
48.0,22.47197132108,64.24,0.036,7.47e-09,386000000.0,132.0,25
49.0,22.49873504636,65.12,0.036,7.47e-09,386000000.0,132.0,25
50.0,22.52549877164,66.0,0.036,7.47e-09,386000000.0,132.0,25
51.0,22.55226249692,62.94,0.036,7.47e-09,386000000.0,132.0,25
52.0,22.5790262222,62.88,0.036,7.47e-09,386000000.0,132.0,25
53.0,22.60578994748,62.82,0.036,7.47e-09,386000000.0,132.0,25
54.0,22.63255367276,62.76,0.036,7.47e-09,386000000.0,132.0,25
55.0,22.65931739804,62.7,0.036,7.47e-09,386000000.0,132.0,25
56.0,22.68608112332,62.64,0.036,7.47e-09,386000000.0,132.0,25
57.0,22.7128448486,62.58,0.036,7.47e-09,386000000.0,132.0,25
58.0,22.73841667172,62.52,0.036,7.47e-09,386000000.0,132.0,25
59.0,22.76398849484,62.46,0.036,7.47e-09,386000000.0,132.0,25
60.0,22.78956031796,62.4,0.036,7.47e-09,386000000.0,132.0,25
61.0,22.81513214108,62.34,0.036,7.47e-09,386000000.0,132.0,25
62.0,22.8407039642,62.28,0.036,7.47e-09,386000000.0,132.0,25
63.0,22.86627578732,62.22,0.036,7.47e-09,386000000.0,132.0,25
64.0,22.89184761044,62.16,0.036,7.47e-09,386000000.0,132.0,25
65.0,22.91741943356,62.1,0.036,7.47e-09,386000000.0,132.0,25
66.0,22.94299125668,62.04,0.036,7.47e-09,386000000.0,132.0,25
67.0,22.9685630798,61.98,0.036,7.47e-09,386000000.0,132.0,25
68.0,22.99322967526,61.92,0.036,7.47e-09,386000000.0,132.0,25
69.0,23.01789627072,61.86,0.036,7.47e-09,386000000.0,132.0,25
70.0,23.04256286618,61.8,0.036,7.47e-09,386000000.0,132.0,25
71.0,23.06722946164,61.74,0.036,7.47e-09,386000000.0,132.0,25
72.0,23.0918960571,61.68,0.036,7.47e-09,386000000.0,132.0,25
73.0,23.11656265256,61.62,0.036,7.47e-09,386000000.0,132.0,25
74.0,23.14122924802,61.56,0.036,7.47e-09,386000000.0,132.0,25
75.0,23.16589584348,61.5,0.036,7.47e-09,386000000.0,132.0,25
76.0,23.19056243894,61.44,0.036,7.47e-09,386000000.0,132.0,25
77.0,23.2152290344,61.38,0.036,7.47e-09,386000000.0,132.0,25
78.0,23.23901920316,61.32,0.036,7.47e-09,386000000.0,132.0,25
79.0,23.26280937192,61.26,0.036,7.47e-09,386000000.0,132.0,25
80.0,23.28659954068,61.2,0.036,7.47e-09,386000000.0,132.0,25
81.0,23.31038970944,61.14,0.036,7.47e-09,386000000.0,132.0,25
82.0,23.3341798782,61.08,0.036,7.47e-09,386000000.0,132.0,25
83.0,23.35797004696,61.02,0.036,7.47e-09,386000000.0,132.0,25
84.0,23.38176021572,60.96,0.036,7.47e-09,386000000.0,132.0,25
85.0,23.40555038448,60.9,0.036,7.47e-09,386000000.0,132.0,25
86.0,23.42934055324,60.84,0.036,7.47e-09,386000000.0,132.0,25
87.0,23.453130722,60.78,0.036,7.47e-09,386000000.0,132.0,25
88.0,23.4760435104,60.72,0.036,7.47e-09,386000000.0,132.0,25
89.0,23.4989562988,60.66,0.036,7.47e-09,386000000.0,132.0,25
90.0,23.5218690872,60.6,0.036,7.47e-09,386000000.0,132.0,25
91.0,23.5447818756,60.54,0.036,7.47e-09,386000000.0,132.0,25
92.0,23.567694664,60.48,0.036,7.47e-09,386000000.0,132.0,25
93.0,23.5906074524,60.42,0.036,7.47e-09,386000000.0,132.0,25
94.0,23.6135202408,60.36,0.036,7.47e-09,386000000.0,132.0,25
95.0,23.6364330292,60.3,0.036,7.47e-09,386000000.0,132.0,25
96.0,23.6593458176,60.24,0.036,7.47e-09,386000000.0,132.0,25
97.0,23.682258606,60.18,0.036,7.47e-09,386000000.0,132.0,25
98.0,23.70486106876,60.12,0.036,7.47e-09,386000000.0,132.0,25
99.0,23.72746353152,60.06,0.036,7.47e-09,386000000.0,132.0,25
100.0,23.75006599428,60.0,0.036,7.47e-09,386000000.0,132.0,25
101.0,23.77266845704,60,0.036,7.47e-09,386000000.0,132.0,25
102.0,23.7952709198,60,0.036,7.47e-09,386000000.0,132.0,25
103.0,23.81787338256,60,0.036,7.47e-09,386000000.0,132.0,25
104.0,23.84047584532,60,0.036,7.47e-09,386000000.0,132.0,25
105.0,23.86307830808,60,0.036,7.47e-09,386000000.0,132.0,25
106.0,23.88568077084,60,0.036,7.47e-09,386000000.0,132.0,25
107.0,23.9082832336,60,0.036,7.47e-09,386000000.0,132.0,25
108.0,23.93077335354,60,0.036,7.47e-09,386000000.0,132.0,25
109.0,23.95326347348,60,0.036,7.47e-09,386000000.0,132.0,25
110.0,23.97575359342,60,0.036,7.47e-09,386000000.0,132.0,25
111.0,23.99824371336,60,0.036,7.47e-09,386000000.0,132.0,25
112.0,24.0207338333,60,0.036,7.47e-09,386000000.0,132.0,25
113.0,24.04322395324,60,0.036,7.47e-09,386000000.0,132.0,25
114.0,24.06571407318,60,0.036,7.47e-09,386000000.0,132.0,25
115.0,24.08820419312,60,0.036,7.47e-09,386000000.0,132.0,25
116.0,24.11069431306,60,0.036,7.47e-09,386000000.0,132.0,25
117.0,24.133184433,60,0.036,7.47e-09,386000000.0,132.0,25
118.0,24.1555370331,60,0.036,7.47e-09,386000000.0,132.0,25
119.0,24.1778896332,60,0.036,7.47e-09,386000000.0,132.0,25
120.0,24.2002422333,60,0.036,7.47e-09,386000000.0,132.0,25
121.0,24.2225948334,60,0.036,7.47e-09,386000000.0,132.0,25
122.0,24.2449474335,60,0.036,7.47e-09,386000000.0,132.0,25
123.0,24.2673000336,60,0.036,7.47e-09,386000000.0,132.0,25
124.0,24.2896526337,60,0.036,7.47e-09,386000000.0,132.0,25
125.0,24.3120052338,60,0.036,7.47e-09,386000000.0,132.0,25
126.0,24.3343578339,60,0.036,7.47e-09,386000000.0,132.0,25
127.0,24.356710434,60,0.036,7.47e-09,386000000.0,132.0,25
128.0,24.37892341617,60,0.036,7.47e-09,386000000.0,132.0,25
129.0,24.40113639834,60,0.036,7.47e-09,386000000.0,132.0,25
130.0,24.42334938051,60,0.036,7.47e-09,386000000.0,132.0,25
131.0,24.44556236268,60,0.036,7.47e-09,386000000.0,132.0,25
132.0,24.46777534485,60,0.036,7.47e-09,386000000.0,132.0,25
133.0,24.48998832702,60,0.036,7.47e-09,386000000.0,132.0,25
134.0,24.51220130919,60,0.036,7.47e-09,386000000.0,132.0,25
135.0,24.53441429136,60,0.036,7.47e-09,386000000.0,132.0,25
136.0,24.55662727353,60,0.036,7.47e-09,386000000.0,132.0,25
137.0,24.5788402557,60,0.036,7.47e-09,386000000.0,132.0,25
138.0,24.60091400143,60,0.036,7.47e-09,386000000.0,132.0,25
139.0,24.62298774716,60,0.036,7.47e-09,386000000.0,132.0,25
140.0,24.64506149289,60,0.036,7.47e-09,386000000.0,132.0,25
141.0,24.66713523862,60,0.036,7.47e-09,386000000.0,132.0,25
142.0,24.68920898435,60,0.036,7.47e-09,386000000.0,132.0,25
143.0,24.71128273008,60,0.036,7.47e-09,386000000.0,132.0,25
144.0,24.73335647581,60,0.036,7.47e-09,386000000.0,132.0,25
145.0,24.75543022154,60,0.036,7.47e-09,386000000.0,132.0,25
146.0,24.77750396727,60,0.036,7.47e-09,386000000.0,132.0,25
147.0,24.799577713,60,0.036,7.47e-09,386000000.0,132.0,25
148.0,24.82151355742,60,0.036,7.47e-09,386000000.0,132.0,25
149.0,24.84344940184,60,0.036,7.47e-09,386000000.0,132.0,25
150.0,24.86538524626,60,0.036,7.47e-09,386000000.0,132.0,25
151.0,24.88732109068,60,0.036,7.47e-09,386000000.0,132.0,25
152.0,24.9092569351,60,0.036,7.47e-09,386000000.0,132.0,25
153.0,24.93119277952,60,0.036,7.47e-09,386000000.0,132.0,25
154.0,24.95312862394,60,0.036,7.47e-09,386000000.0,132.0,25
155.0,24.97506446836,60,0.036,7.47e-09,386000000.0,132.0,25
156.0,24.99700031278,60,0.036,7.47e-09,386000000.0,132.0,25
157.0,25.0189361572,60,0.036,7.47e-09,386000000.0,132.0,25
158.0,25.04073505399,60,0.036,7.47e-09,386000000.0,132.0,25
159.0,25.06253395078,60,0.036,7.47e-09,386000000.0,132.0,25
160.0,25.08433284757,60,0.036,7.47e-09,386000000.0,132.0,25
161.0,25.10613174436,60,0.036,7.47e-09,386000000.0,132.0,25
162.0,25.12793064115,60,0.036,7.47e-09,386000000.0,132.0,25
163.0,25.14972953794,60,0.036,7.47e-09,386000000.0,132.0,25
164.0,25.17152843473,60,0.036,7.47e-09,386000000.0,132.0,25
165.0,25.19332733152,60,0.036,7.47e-09,386000000.0,132.0,25
166.0,25.21512622831,60,0.036,7.47e-09,386000000.0,132.0,25
167.0,25.2369251251,60,0.036,7.47e-09,386000000.0,132.0,25
168.0,25.25858802793,60,0.036,7.47e-09,386000000.0,132.0,25
169.0,25.28025093076,60,0.036,7.47e-09,386000000.0,132.0,25
170.0,25.30191383359,60,0.036,7.47e-09,386000000.0,132.0,25
171.0,25.32357673642,60,0.036,7.47e-09,386000000.0,132.0,25
172.0,25.34523963925,60,0.036,7.47e-09,386000000.0,132.0,25
173.0,25.36690254208,60,0.036,7.47e-09,386000000.0,132.0,25
174.0,25.38856544491,60,0.036,7.47e-09,386000000.0,132.0,25
175.0,25.41022834774,60,0.036,7.47e-09,386000000.0,132.0,25
176.0,25.43189125057,60,0.036,7.47e-09,386000000.0,132.0,25
177.0,25.4535541534,60,0.036,7.47e-09,386000000.0,132.0,25
178.0,25.47508201595,60,0.036,7.47e-09,386000000.0,132.0,25
179.0,25.4966098785,60,0.036,7.47e-09,386000000.0,132.0,25
180.0,25.51813774105,60,0.036,7.47e-09,386000000.0,132.0,25
181.0,25.5396656036,60,0.036,7.47e-09,386000000.0,132.0,25
182.0,25.56119346615,60,0.036,7.47e-09,386000000.0,132.0,25
183.0,25.5827213287,60,0.036,7.47e-09,386000000.0,132.0,25
184.0,25.60424919125,60,0.036,7.47e-09,386000000.0,132.0,25
185.0,25.6257770538,60,0.036,7.47e-09,386000000.0,132.0,25
186.0,25.64730491635,60,0.036,7.47e-09,386000000.0,132.0,25
187.0,25.6688327789,60,0.036,7.47e-09,386000000.0,132.0,25
188.0,25.69022636411,60,0.036,7.47e-09,386000000.0,132.0,25
189.0,25.71161994932,60,0.036,7.47e-09,386000000.0,132.0,25
190.0,25.73301353453,60,0.036,7.47e-09,386000000.0,132.0,25
191.0,25.75440711974,60,0.036,7.47e-09,386000000.0,132.0,25
192.0,25.77580070495,60,0.036,7.47e-09,386000000.0,132.0,25
193.0,25.79719429016,60,0.036,7.47e-09,386000000.0,132.0,25
194.0,25.81858787537,60,0.036,7.47e-09,386000000.0,132.0,25
195.0,25.83998146058,60,0.036,7.47e-09,386000000.0,132.0,25
196.0,25.86137504579,60,0.036,7.47e-09,386000000.0,132.0,25
197.0,25.882768631,60,0.036,7.47e-09,386000000.0,132.0,25
198.0,25.90402889253,60,0.036,7.47e-09,386000000.0,132.0,25
199.0,25.92528915406,60,0.036,7.47e-09,386000000.0,132.0,25
200.0,25.94654941559,60,0.036,7.47e-09,386000000.0,132.0,25
201.0,25.96780967712,60,0.036,7.47e-09,386000000.0,132.0,25
202.0,25.98906993865,60,0.036,7.47e-09,386000000.0,132.0,25
203.0,26.01033020018,60,0.036,7.47e-09,386000000.0,132.0,25
204.0,26.03159046171,60,0.036,7.47e-09,386000000.0,132.0,25
205.0,26.05285072324,60,0.036,7.47e-09,386000000.0,132.0,25
206.0,26.07411098477,60,0.036,7.47e-09,386000000.0,132.0,25
207.0,26.0953712463,60,0.036,7.47e-09,386000000.0,132.0,25
208.0,26.11649894711,60,0.036,7.47e-09,386000000.0,132.0,25
209.0,26.13762664792,60,0.036,7.47e-09,386000000.0,132.0,25
210.0,26.15875434873,60,0.036,7.47e-09,386000000.0,132.0,25
211.0,26.17988204954,60,0.036,7.47e-09,386000000.0,132.0,25
212.0,26.20100975035,60,0.036,7.47e-09,386000000.0,132.0,25
213.0,26.22213745116,60,0.036,7.47e-09,386000000.0,132.0,25
214.0,26.24326515197,60,0.036,7.47e-09,386000000.0,132.0,25
215.0,26.26439285278,60,0.036,7.47e-09,386000000.0,132.0,25
216.0,26.28552055359,60,0.036,7.47e-09,386000000.0,132.0,25
217.0,26.3066482544,60,0.036,7.47e-09,386000000.0,132.0,25
218.0,26.32764434815,60,0.036,7.47e-09,386000000.0,132.0,25
219.0,26.3486404419,60,0.036,7.47e-09,386000000.0,132.0,25
220.0,26.36963653565,60,0.036,7.47e-09,386000000.0,132.0,25
221.0,26.3906326294,60,0.036,7.47e-09,386000000.0,132.0,25
222.0,26.41162872315,60,0.036,7.47e-09,386000000.0,132.0,25
223.0,26.4326248169,60,0.036,7.47e-09,386000000.0,132.0,25
224.0,26.45362091065,60,0.036,7.47e-09,386000000.0,132.0,25
225.0,26.4746170044,60,0.036,7.47e-09,386000000.0,132.0,25
226.0,26.49561309815,60,0.036,7.47e-09,386000000.0,132.0,25
227.0,26.5166091919,60,0.036,7.47e-09,386000000.0,132.0,25
228.0,26.53747444153,60,0.036,7.47e-09,386000000.0,132.0,25
229.0,26.55833969116,60,0.036,7.47e-09,386000000.0,132.0,25
230.0,26.57920494079,60,0.036,7.47e-09,386000000.0,132.0,25
231.0,26.60007019042,60,0.036,7.47e-09,386000000.0,132.0,25
232.0,26.62093544005,60,0.036,7.47e-09,386000000.0,132.0,25
233.0,26.64180068968,60,0.036,7.47e-09,386000000.0,132.0,25
234.0,26.66266593931,60,0.036,7.47e-09,386000000.0,132.0,25
235.0,26.68353118894,60,0.036,7.47e-09,386000000.0,132.0,25
236.0,26.70439643857,60,0.036,7.47e-09,386000000.0,132.0,25
237.0,26.7252616882,60,0.036,7.47e-09,386000000.0,132.0,25
238.0,26.7459970474,60,0.036,7.47e-09,386000000.0,132.0,25
239.0,26.7667324066,60,0.036,7.47e-09,386000000.0,132.0,25
240.0,26.7874677658,60,0.036,7.47e-09,386000000.0,132.0,25
241.0,26.808203125,60,0.036,7.47e-09,386000000.0,132.0,25
242.0,26.8289384842,60,0.036,7.47e-09,386000000.0,132.0,25
243.0,26.8496738434,60,0.036,7.47e-09,386000000.0,132.0,25
244.0,26.8704092026,60,0.036,7.47e-09,386000000.0,132.0,25
245.0,26.8911445618,60,0.036,7.47e-09,386000000.0,132.0,25
246.0,26.911879921,60,0.036,7.47e-09,386000000.0,132.0,25
247.0,26.9326152802,60,0.036,7.47e-09,386000000.0,132.0,25
248.0,26.95322113041,60,0.036,7.47e-09,386000000.0,132.0,25
249.0,26.97382698062,60,0.036,7.47e-09,386000000.0,132.0,25
250.0,26.99443283083,60,0.036,7.47e-09,386000000.0,132.0,25
251.0,27.01503868104,60,0.036,7.47e-09,386000000.0,132.0,25
252.0,27.03564453125,60,0.036,7.47e-09,386000000.0,132.0,25
253.0,27.05625038146,60,0.036,7.47e-09,386000000.0,132.0,25
254.0,27.07685623167,60,0.036,7.47e-09,386000000.0,132.0,25
255.0,27.09746208188,60,0.036,7.47e-09,386000000.0,132.0,25
256.0,27.11806793209,60,0.036,7.47e-09,386000000.0,132.0,25
257.0,27.1386737823,60,0.036,7.47e-09,386000000.0,132.0,25
258.0,27.1591514587,60,0.036,7.47e-09,386000000.0,132.0,25
259.0,27.1796291351,60,0.036,7.47e-09,386000000.0,132.0,25
260.0,27.2001068115,60,0.036,7.47e-09,386000000.0,132.0,25
261.0,27.2205844879,60,0.036,7.47e-09,386000000.0,132.0,25
262.0,27.2410621643,60,0.036,7.47e-09,386000000.0,132.0,25
263.0,27.2615398407,60,0.036,7.47e-09,386000000.0,132.0,25
264.0,27.2820175171,60,0.036,7.47e-09,386000000.0,132.0,25
265.0,27.3024951935,60,0.036,7.47e-09,386000000.0,132.0,25
266.0,27.3229728699,60,0.036,7.47e-09,386000000.0,132.0,25
267.0,27.3434505463,60,0.036,7.47e-09,386000000.0,132.0,25
268.0,27.36380062106,60,0.036,7.47e-09,386000000.0,132.0,25
269.0,27.38415069582,60,0.036,7.47e-09,386000000.0,132.0,25
270.0,27.40450077058,60,0.036,7.47e-09,386000000.0,132.0,25
271.0,27.42485084534,60,0.036,7.47e-09,386000000.0,132.0,25
272.0,27.4452009201,60,0.036,7.47e-09,386000000.0,132.0,25
273.0,27.46555099486,60,0.036,7.47e-09,386000000.0,132.0,25
274.0,27.48590106962,60,0.036,7.47e-09,386000000.0,132.0,25
275.0,27.50625114438,60,0.036,7.47e-09,386000000.0,132.0,25
276.0,27.52660121914,60,0.036,7.47e-09,386000000.0,132.0,25
277.0,27.5469512939,60,0.036,7.47e-09,386000000.0,132.0,25
278.0,27.56717452999,60,0.036,7.47e-09,386000000.0,132.0,25
279.0,27.58739776608,60,0.036,7.47e-09,386000000.0,132.0,25
280.0,27.60762100217,60,0.036,7.47e-09,386000000.0,132.0,25
281.0,27.62784423826,60,0.036,7.47e-09,386000000.0,132.0,25
282.0,27.64806747435,60,0.036,7.47e-09,386000000.0,132.0,25
283.0,27.66829071044,60,0.036,7.47e-09,386000000.0,132.0,25
284.0,27.68851394653,60,0.036,7.47e-09,386000000.0,132.0,25
285.0,27.70873718262,60,0.036,7.47e-09,386000000.0,132.0,25
286.0,27.72896041871,60,0.036,7.47e-09,386000000.0,132.0,25
287.0,27.7491836548,60,0.036,7.47e-09,386000000.0,132.0,25
288.0,27.76928081514,60,0.036,7.47e-09,386000000.0,132.0,25
289.0,27.78937797548,60,0.036,7.47e-09,386000000.0,132.0,25
290.0,27.80947513582,60,0.036,7.47e-09,386000000.0,132.0,25
291.0,27.82957229616,60,0.036,7.47e-09,386000000.0,132.0,25
292.0,27.8496694565,60,0.036,7.47e-09,386000000.0,132.0,25
293.0,27.86976661684,60,0.036,7.47e-09,386000000.0,132.0,25
294.0,27.88986377718,60,0.036,7.47e-09,386000000.0,132.0,25
295.0,27.90996093752,60,0.036,7.47e-09,386000000.0,132.0,25
296.0,27.93005809786,60,0.036,7.47e-09,386000000.0,132.0,25
297.0,27.9501552582,60,0.036,7.47e-09,386000000.0,132.0,25
298.0,27.97012710573,60,0.036,7.47e-09,386000000.0,132.0,25
299.0,27.99009895326,60,0.036,7.47e-09,386000000.0,132.0,25
300.0,28.01007080079,60,0.036,7.47e-09,386000000.0,132.0,25
301.0,28.03004264832,60,0.036,7.47e-09,386000000.0,132.0,25
302.0,28.05001449585,60,0.036,7.47e-09,386000000.0,132.0,25
303.0,28.06998634338,60,0.036,7.47e-09,386000000.0,132.0,25
304.0,28.08995819091,60,0.036,7.47e-09,386000000.0,132.0,25
305.0,28.10993003844,60,0.036,7.47e-09,386000000.0,132.0,25
306.0,28.12990188597,60,0.036,7.47e-09,386000000.0,132.0,25
307.0,28.1498737335,60,0.036,7.47e-09,386000000.0,132.0,25
308.0,28.16972122191,60,0.036,7.47e-09,386000000.0,132.0,25
309.0,28.18956871032,60,0.036,7.47e-09,386000000.0,132.0,25
310.0,28.20941619873,60,0.036,7.47e-09,386000000.0,132.0,25
311.0,28.22926368714,60,0.036,7.47e-09,386000000.0,132.0,25
312.0,28.24911117555,60,0.036,7.47e-09,386000000.0,132.0,25
313.0,28.26895866396,60,0.036,7.47e-09,386000000.0,132.0,25
314.0,28.28880615237,60,0.036,7.47e-09,386000000.0,132.0,25
315.0,28.30865364078,60,0.036,7.47e-09,386000000.0,132.0,25
316.0,28.32850112919,60,0.036,7.47e-09,386000000.0,132.0,25
317.0,28.3483486176,60,0.036,7.47e-09,386000000.0,132.0,25
318.0,28.36807250981,60,0.036,7.47e-09,386000000.0,132.0,25
319.0,28.38779640202,60,0.036,7.47e-09,386000000.0,132.0,25
320.0,28.40752029423,60,0.036,7.47e-09,386000000.0,132.0,25
321.0,28.42724418644,60,0.036,7.47e-09,386000000.0,132.0,25
322.0,28.44696807865,60,0.036,7.47e-09,386000000.0,132.0,25
323.0,28.46669197086,60,0.036,7.47e-09,386000000.0,132.0,25
324.0,28.48641586307,60,0.036,7.47e-09,386000000.0,132.0,25
325.0,28.50613975528,60,0.036,7.47e-09,386000000.0,132.0,25
326.0,28.52586364749,60,0.036,7.47e-09,386000000.0,132.0,25
327.0,28.5455875397,60,0.036,7.47e-09,386000000.0,132.0,25
328.0,28.56518840792,60,0.036,7.47e-09,386000000.0,132.0,25
329.0,28.58478927614,60,0.036,7.47e-09,386000000.0,132.0,25
330.0,28.60439014436,60,0.036,7.47e-09,386000000.0,132.0,25
