time,T_int,T_ext_1,Film_Coef,Density,Specific_Heat,Thermal_Conductivity,Radius
1.0,21.9378738403,22.88,0.036,7.97e-09,336000000.0,112.0,15
2.0,21.8888378143,23.76,0.036,7.97e-09,336000000.0,112.0,15
3.0,21.8480167389,24.64,0.036,7.97e-09,336000000.0,112.0,15
4.0,21.8169898987,25.52,0.036,7.97e-09,336000000.0,112.0,15
5.0,21.7859630585,26.4,0.036,7.97e-09,336000000.0,112.0,15
6.0,21.76830482485,27.28,0.036,7.97e-09,336000000.0,112.0,15
7.0,21.7506465912,28.16,0.036,7.97e-09,336000000.0,112.0,15
8.0,21.73298835755,29.04,0.036,7.97e-09,336000000.0,112.0,15
9.0,21.7153301239,29.92,0.036,7.97e-09,336000000.0,112.0,15
10.0,21.7198243141125,30.8,0.036,7.97e-09,336000000.0,112.0,15
11.0,21.724318504325,31.68,0.036,7.97e-09,336000000.0,112.0,15
12.0,21.7288126945375,32.56,0.036,7.97e-09,336000000.0,112.0,15
13.0,21.73330688475,33.44,0.036,7.97e-09,336000000.0,112.0,15
14.0,21.7378010749625,34.32,0.036,7.97e-09,336000000.0,112.0,15
15.0,21.742295265175,35.2,0.036,7.97e-09,336000000.0,112.0,15
16.0,21.7467894553875,36.08,0.036,7.97e-09,336000000.0,112.0,15
17.0,21.7512836456,36.96,0.036,7.97e-09,336000000.0,112.0,15
18.0,21.78181705472,37.84,0.036,7.97e-09,336000000.0,112.0,15
19.0,21.81235046384,38.72,0.036,7.97e-09,336000000.0,112.0,15
20.0,21.84288387296,39.6,0.036,7.97e-09,336000000.0,112.0,15
21.0,21.87341728208,40.48,0.036,7.97e-09,336000000.0,112.0,15
22.0,21.9039506912,41.36,0.036,7.97e-09,336000000.0,112.0,15
23.0,21.93448410032,42.24,0.036,7.97e-09,336000000.0,112.0,15
24.0,21.96501750944,43.12,0.036,7.97e-09,336000000.0,112.0,15
25.0,21.99555091856,44.0,0.036,7.97e-09,336000000.0,112.0,15
26.0,22.02608432768,44.88,0.036,7.97e-09,336000000.0,112.0,15
27.0,22.0566177368,45.76,0.036,7.97e-09,336000000.0,112.0,15
28.0,22.1125356674,46.64,0.036,7.97e-09,336000000.0,112.0,15
29.0,22.168453598,47.52,0.036,7.97e-09,336000000.0,112.0,15
30.0,22.2243715286,48.4,0.036,7.97e-09,336000000.0,112.0,15
31.0,22.2802894592,49.28,0.036,7.97e-09,336000000.0,112.0,15
32.0,22.3362073898,50.16,0.036,7.97e-09,336000000.0,112.0,15
33.0,22.3921253204,51.04,0.036,7.97e-09,336000000.0,112.0,15
34.0,22.448043251,51.92,0.036,7.97e-09,336000000.0,112.0,15
35.0,22.5039611816,52.8,0.036,7.97e-09,336000000.0,112.0,15
36.0,22.5598791122,53.68,0.036,7.97e-09,336000000.0,112.0,15
37.0,22.6157970428,54.56,0.036,7.97e-09,336000000.0,112.0,15
38.0,22.6966312408,55.44,0.036,7.97e-09,336000000.0,112.0,15
39.0,22.7774654388,56.32,0.036,7.97e-09,336000000.0,112.0,15
40.0,22.8582996368,57.2,0.036,7.97e-09,336000000.0,112.0,15
41.0,22.9391338348,58.08,0.036,7.97e-09,336000000.0,112.0,15
42.0,23.0199680328,58.96,0.036,7.97e-09,336000000.0,112.0,15
43.0,23.1008022308,59.84,0.036,7.97e-09,336000000.0,112.0,15
44.0,23.1816364288,60.72,0.036,7.97e-09,336000000.0,112.0,15
45.0,23.2624706268,61.6,0.036,7.97e-09,336000000.0,112.0,15
46.0,23.3433048248,62.48,0.036,7.97e-09,336000000.0,112.0,15
47.0,23.4241390228,63.36,0.036,7.97e-09,336000000.0,112.0,15
48.0,23.50747394559,64.24,0.036,7.97e-09,336000000.0,112.0,15
49.0,23.59080886838,65.12,0.036,7.97e-09,336000000.0,112.0,15
50.0,23.67414379117,66.0,0.036,7.97e-09,336000000.0,112.0,15
51.0,23.75747871396,62.94,0.036,7.97e-09,336000000.0,112.0,15
52.0,23.84081363675,62.88,0.036,7.97e-09,336000000.0,112.0,15
53.0,23.92414855954,62.82,0.036,7.97e-09,336000000.0,112.0,15
54.0,24.00748348233,62.76,0.036,7.97e-09,336000000.0,112.0,15
55.0,24.09081840512,62.7,0.036,7.97e-09,336000000.0,112.0,15
56.0,24.17415332791,62.64,0.036,7.97e-09,336000000.0,112.0,15
57.0,24.2574882507,62.58,0.036,7.97e-09,336000000.0,112.0,15
58.0,24.33572444913,62.52,0.036,7.97e-09,336000000.0,112.0,15
59.0,24.41396064756,62.46,0.036,7.97e-09,336000000.0,112.0,15
60.0,24.49219684599,62.4,0.036,7.97e-09,336000000.0,112.0,15
61.0,24.57043304442,62.34,0.036,7.97e-09,336000000.0,112.0,15
62.0,24.64866924285,62.28,0.036,7.97e-09,336000000.0,112.0,15
63.0,24.72690544128,62.22,0.036,7.97e-09,336000000.0,112.0,15
64.0,24.80514163971,62.16,0.036,7.97e-09,336000000.0,112.0,15
65.0,24.88337783814,62.1,0.036,7.97e-09,336000000.0,112.0,15
66.0,24.96161403657,62.04,0.036,7.97e-09,336000000.0,112.0,15
67.0,25.039850235,61.98,0.036,7.97e-09,336000000.0,112.0,15
68.0,25.1141231537,61.92,0.036,7.97e-09,336000000.0,112.0,15
69.0,25.1883960724,61.86,0.036,7.97e-09,336000000.0,112.0,15
70.0,25.2626689911,61.8,0.036,7.97e-09,336000000.0,112.0,15
71.0,25.3369419098,61.74,0.036,7.97e-09,336000000.0,112.0,15
72.0,25.4112148285,61.68,0.036,7.97e-09,336000000.0,112.0,15
73.0,25.4854877472,61.62,0.036,7.97e-09,336000000.0,112.0,15
74.0,25.5597606659,61.56,0.036,7.97e-09,336000000.0,112.0,15
75.0,25.6340335846,61.5,0.036,7.97e-09,336000000.0,112.0,15
76.0,25.7083065033,61.44,0.036,7.97e-09,336000000.0,112.0,15
77.0,25.782579422,61.38,0.036,7.97e-09,336000000.0,112.0,15
78.0,25.85308399201,61.32,0.036,7.97e-09,336000000.0,112.0,15
79.0,25.92358856202,61.26,0.036,7.97e-09,336000000.0,112.0,15
80.0,25.99409313203,61.2,0.036,7.97e-09,336000000.0,112.0,15
81.0,26.06459770204,61.14,0.036,7.97e-09,336000000.0,112.0,15
82.0,26.13510227205,61.08,0.036,7.97e-09,336000000.0,112.0,15
83.0,26.20560684206,61.02,0.036,7.97e-09,336000000.0,112.0,15
84.0,26.27611141207,60.96,0.036,7.97e-09,336000000.0,112.0,15
85.0,26.34661598208,60.9,0.036,7.97e-09,336000000.0,112.0,15
86.0,26.41712055209,60.84,0.036,7.97e-09,336000000.0,112.0,15
87.0,26.4876251221,60.78,0.036,7.97e-09,336000000.0,112.0,15
88.0,26.55442390445,60.72,0.036,7.97e-09,336000000.0,112.0,15
89.0,26.6212226868,60.66,0.036,7.97e-09,336000000.0,112.0,15
90.0,26.68802146915,60.6,0.036,7.97e-09,336000000.0,112.0,15
91.0,26.7548202515,60.54,0.036,7.97e-09,336000000.0,112.0,15
92.0,26.82161903385,60.48,0.036,7.97e-09,336000000.0,112.0,15
93.0,26.8884178162,60.42,0.036,7.97e-09,336000000.0,112.0,15
94.0,26.95521659855,60.36,0.036,7.97e-09,336000000.0,112.0,15
95.0,27.0220153809,60.3,0.036,7.97e-09,336000000.0,112.0,15
96.0,27.08881416325,60.24,0.036,7.97e-09,336000000.0,112.0,15
97.0,27.1556129456,60.18,0.036,7.97e-09,336000000.0,112.0,15
98.0,27.22058601383,60.12,0.036,7.97e-09,336000000.0,112.0,15
99.0,27.28555908206,60.06,0.036,7.97e-09,336000000.0,112.0,15
100.0,27.35053215029,60.0,0.036,7.97e-09,336000000.0,112.0,15
101.0,27.41550521852,60,0.036,7.97e-09,336000000.0,112.0,15
102.0,27.48047828675,60,0.036,7.97e-09,336000000.0,112.0,15
103.0,27.54545135498,60,0.036,7.97e-09,336000000.0,112.0,15
104.0,27.61042442321,60,0.036,7.97e-09,336000000.0,112.0,15
105.0,27.67539749144,60,0.036,7.97e-09,336000000.0,112.0,15
106.0,27.74037055967,60,0.036,7.97e-09,336000000.0,112.0,15
107.0,27.8053436279,60,0.036,7.97e-09,336000000.0,112.0,15
108.0,27.86914119718,60,0.036,7.97e-09,336000000.0,112.0,15
109.0,27.93293876646,60,0.036,7.97e-09,336000000.0,112.0,15
110.0,27.99673633574,60,0.036,7.97e-09,336000000.0,112.0,15
111.0,28.06053390502,60,0.036,7.97e-09,336000000.0,112.0,15
112.0,28.1243314743,60,0.036,7.97e-09,336000000.0,112.0,15
113.0,28.18812904358,60,0.036,7.97e-09,336000000.0,112.0,15
114.0,28.25192661286,60,0.036,7.97e-09,336000000.0,112.0,15
115.0,28.31572418214,60,0.036,7.97e-09,336000000.0,112.0,15
116.0,28.37952175142,60,0.036,7.97e-09,336000000.0,112.0,15
117.0,28.4433193207,60,0.036,7.97e-09,336000000.0,112.0,15
118.0,28.50586891176,60,0.036,7.97e-09,336000000.0,112.0,15
119.0,28.56841850282,60,0.036,7.97e-09,336000000.0,112.0,15
120.0,28.63096809388,60,0.036,7.97e-09,336000000.0,112.0,15
121.0,28.69351768494,60,0.036,7.97e-09,336000000.0,112.0,15
122.0,28.756067276,60,0.036,7.97e-09,336000000.0,112.0,15
123.0,28.81861686706,60,0.036,7.97e-09,336000000.0,112.0,15
124.0,28.88116645812,60,0.036,7.97e-09,336000000.0,112.0,15
125.0,28.94371604918,60,0.036,7.97e-09,336000000.0,112.0,15
126.0,29.00626564024,60,0.036,7.97e-09,336000000.0,112.0,15
127.0,29.0688152313,60,0.036,7.97e-09,336000000.0,112.0,15
128.0,29.1301263809,60,0.036,7.97e-09,336000000.0,112.0,15
129.0,29.1914375305,60,0.036,7.97e-09,336000000.0,112.0,15
130.0,29.2527486801,60,0.036,7.97e-09,336000000.0,112.0,15
131.0,29.3140598297,60,0.036,7.97e-09,336000000.0,112.0,15
132.0,29.3753709793,60,0.036,7.97e-09,336000000.0,112.0,15
133.0,29.4366821289,60,0.036,7.97e-09,336000000.0,112.0,15
134.0,29.4979932785,60,0.036,7.97e-09,336000000.0,112.0,15
135.0,29.5593044281,60,0.036,7.97e-09,336000000.0,112.0,15
136.0,29.6206155777,60,0.036,7.97e-09,336000000.0,112.0,15
137.0,29.6819267273,60,0.036,7.97e-09,336000000.0,112.0,15
138.0,29.74202136994,60,0.036,7.97e-09,336000000.0,112.0,15
139.0,29.80211601258,60,0.036,7.97e-09,336000000.0,112.0,15
140.0,29.86221065522,60,0.036,7.97e-09,336000000.0,112.0,15
141.0,29.92230529786,60,0.036,7.97e-09,336000000.0,112.0,15
142.0,29.9823999405,60,0.036,7.97e-09,336000000.0,112.0,15
143.0,30.04249458314,60,0.036,7.97e-09,336000000.0,112.0,15
144.0,30.10258922578,60,0.036,7.97e-09,336000000.0,112.0,15
145.0,30.16268386842,60,0.036,7.97e-09,336000000.0,112.0,15
146.0,30.22277851106,60,0.036,7.97e-09,336000000.0,112.0,15
147.0,30.2828731537,60,0.036,7.97e-09,336000000.0,112.0,15
148.0,30.34177532197,60,0.036,7.97e-09,336000000.0,112.0,15
149.0,30.40067749024,60,0.036,7.97e-09,336000000.0,112.0,15
150.0,30.45957965851,60,0.036,7.97e-09,336000000.0,112.0,15
151.0,30.51848182678,60,0.036,7.97e-09,336000000.0,112.0,15
152.0,30.57738399505,60,0.036,7.97e-09,336000000.0,112.0,15
153.0,30.63628616332,60,0.036,7.97e-09,336000000.0,112.0,15
154.0,30.69518833159,60,0.036,7.97e-09,336000000.0,112.0,15
155.0,30.75409049986,60,0.036,7.97e-09,336000000.0,112.0,15
156.0,30.81299266813,60,0.036,7.97e-09,336000000.0,112.0,15
157.0,30.8718948364,60,0.036,7.97e-09,336000000.0,112.0,15
158.0,30.92962894437,60,0.036,7.97e-09,336000000.0,112.0,15
159.0,30.98736305234,60,0.036,7.97e-09,336000000.0,112.0,15
160.0,31.04509716031,60,0.036,7.97e-09,336000000.0,112.0,15
161.0,31.10283126828,60,0.036,7.97e-09,336000000.0,112.0,15
162.0,31.16056537625,60,0.036,7.97e-09,336000000.0,112.0,15
163.0,31.21829948422,60,0.036,7.97e-09,336000000.0,112.0,15
164.0,31.27603359219,60,0.036,7.97e-09,336000000.0,112.0,15
165.0,31.33376770016,60,0.036,7.97e-09,336000000.0,112.0,15
166.0,31.39150180813,60,0.036,7.97e-09,336000000.0,112.0,15
167.0,31.4492359161,60,0.036,7.97e-09,336000000.0,112.0,15
168.0,31.50582523343,60,0.036,7.97e-09,336000000.0,112.0,15
169.0,31.56241455076,60,0.036,7.97e-09,336000000.0,112.0,15
170.0,31.61900386809,60,0.036,7.97e-09,336000000.0,112.0,15
171.0,31.67559318542,60,0.036,7.97e-09,336000000.0,112.0,15
172.0,31.73218250275,60,0.036,7.97e-09,336000000.0,112.0,15
173.0,31.78877182008,60,0.036,7.97e-09,336000000.0,112.0,15
174.0,31.84536113741,60,0.036,7.97e-09,336000000.0,112.0,15
175.0,31.90195045474,60,0.036,7.97e-09,336000000.0,112.0,15
176.0,31.95853977207,60,0.036,7.97e-09,336000000.0,112.0,15
177.0,32.0151290894,60,0.036,7.97e-09,336000000.0,112.0,15
178.0,32.07059631352,60,0.036,7.97e-09,336000000.0,112.0,15
179.0,32.12606353764,60,0.036,7.97e-09,336000000.0,112.0,15
180.0,32.18153076176,60,0.036,7.97e-09,336000000.0,112.0,15
181.0,32.23699798588,60,0.036,7.97e-09,336000000.0,112.0,15
182.0,32.29246521,60,0.036,7.97e-09,336000000.0,112.0,15
183.0,32.34793243412,60,0.036,7.97e-09,336000000.0,112.0,15
184.0,32.40339965824,60,0.036,7.97e-09,336000000.0,112.0,15
185.0,32.45886688236,60,0.036,7.97e-09,336000000.0,112.0,15
186.0,32.51433410648,60,0.036,7.97e-09,336000000.0,112.0,15
187.0,32.5698013306,60,0.036,7.97e-09,336000000.0,112.0,15
188.0,32.62416915897,60,0.036,7.97e-09,336000000.0,112.0,15
189.0,32.67853698734,60,0.036,7.97e-09,336000000.0,112.0,15
190.0,32.73290481571,60,0.036,7.97e-09,336000000.0,112.0,15
191.0,32.78727264408,60,0.036,7.97e-09,336000000.0,112.0,15
192.0,32.84164047245,60,0.036,7.97e-09,336000000.0,112.0,15
193.0,32.89600830082,60,0.036,7.97e-09,336000000.0,112.0,15
194.0,32.95037612919,60,0.036,7.97e-09,336000000.0,112.0,15
195.0,33.00474395756,60,0.036,7.97e-09,336000000.0,112.0,15
196.0,33.05911178593,60,0.036,7.97e-09,336000000.0,112.0,15
197.0,33.1134796143,60,0.036,7.97e-09,336000000.0,112.0,15
198.0,33.16676979069,60,0.036,7.97e-09,336000000.0,112.0,15
199.0,33.22005996708,60,0.036,7.97e-09,336000000.0,112.0,15
200.0,33.27335014347,60,0.036,7.97e-09,336000000.0,112.0,15
201.0,33.32664031986,60,0.036,7.97e-09,336000000.0,112.0,15
202.0,33.37993049625,60,0.036,7.97e-09,336000000.0,112.0,15
203.0,33.43322067264,60,0.036,7.97e-09,336000000.0,112.0,15
204.0,33.48651084903,60,0.036,7.97e-09,336000000.0,112.0,15
205.0,33.53980102542,60,0.036,7.97e-09,336000000.0,112.0,15
206.0,33.59309120181,60,0.036,7.97e-09,336000000.0,112.0,15
207.0,33.6463813782,60,0.036,7.97e-09,336000000.0,112.0,15
208.0,33.69861526492,60,0.036,7.97e-09,336000000.0,112.0,15
209.0,33.75084915164,60,0.036,7.97e-09,336000000.0,112.0,15
210.0,33.80308303836,60,0.036,7.97e-09,336000000.0,112.0,15
211.0,33.85531692508,60,0.036,7.97e-09,336000000.0,112.0,15
212.0,33.9075508118,60,0.036,7.97e-09,336000000.0,112.0,15
213.0,33.95978469852,60,0.036,7.97e-09,336000000.0,112.0,15
214.0,34.01201858524,60,0.036,7.97e-09,336000000.0,112.0,15
215.0,34.06425247196,60,0.036,7.97e-09,336000000.0,112.0,15
216.0,34.11648635868,60,0.036,7.97e-09,336000000.0,112.0,15
217.0,34.1687202454,60,0.036,7.97e-09,336000000.0,112.0,15
218.0,34.21991882328,60,0.036,7.97e-09,336000000.0,112.0,15
219.0,34.27111740116,60,0.036,7.97e-09,336000000.0,112.0,15
220.0,34.32231597904,60,0.036,7.97e-09,336000000.0,112.0,15
221.0,34.37351455692,60,0.036,7.97e-09,336000000.0,112.0,15
222.0,34.4247131348,60,0.036,7.97e-09,336000000.0,112.0,15
223.0,34.47591171268,60,0.036,7.97e-09,336000000.0,112.0,15
224.0,34.52711029056,60,0.036,7.97e-09,336000000.0,112.0,15
225.0,34.57830886844,60,0.036,7.97e-09,336000000.0,112.0,15
226.0,34.62950744632,60,0.036,7.97e-09,336000000.0,112.0,15
227.0,34.6807060242,60,0.036,7.97e-09,336000000.0,112.0,15
228.0,34.73088951114,60,0.036,7.97e-09,336000000.0,112.0,15
229.0,34.78107299808,60,0.036,7.97e-09,336000000.0,112.0,15
230.0,34.83125648502,60,0.036,7.97e-09,336000000.0,112.0,15
231.0,34.88143997196,60,0.036,7.97e-09,336000000.0,112.0,15
232.0,34.9316234589,60,0.036,7.97e-09,336000000.0,112.0,15
233.0,34.98180694584,60,0.036,7.97e-09,336000000.0,112.0,15
234.0,35.03199043278,60,0.036,7.97e-09,336000000.0,112.0,15
235.0,35.08217391972,60,0.036,7.97e-09,336000000.0,112.0,15
236.0,35.13235740666,60,0.036,7.97e-09,336000000.0,112.0,15
237.0,35.1825408936,60,0.036,7.97e-09,336000000.0,112.0,15
238.0,35.23172988896,60,0.036,7.97e-09,336000000.0,112.0,15
239.0,35.28091888432,60,0.036,7.97e-09,336000000.0,112.0,15
240.0,35.33010787968,60,0.036,7.97e-09,336000000.0,112.0,15
241.0,35.37929687504,60,0.036,7.97e-09,336000000.0,112.0,15
242.0,35.4284858704,60,0.036,7.97e-09,336000000.0,112.0,15
243.0,35.47767486576,60,0.036,7.97e-09,336000000.0,112.0,15
244.0,35.52686386112,60,0.036,7.97e-09,336000000.0,112.0,15
245.0,35.57605285648,60,0.036,7.97e-09,336000000.0,112.0,15
246.0,35.62524185184,60,0.036,7.97e-09,336000000.0,112.0,15
247.0,35.6744308472,60,0.036,7.97e-09,336000000.0,112.0,15
248.0,35.72264518741,60,0.036,7.97e-09,336000000.0,112.0,15
249.0,35.77085952762,60,0.036,7.97e-09,336000000.0,112.0,15
250.0,35.81907386783,60,0.036,7.97e-09,336000000.0,112.0,15
251.0,35.86728820804,60,0.036,7.97e-09,336000000.0,112.0,15
252.0,35.91550254825,60,0.036,7.97e-09,336000000.0,112.0,15
253.0,35.96371688846,60,0.036,7.97e-09,336000000.0,112.0,15
254.0,36.01193122867,60,0.036,7.97e-09,336000000.0,112.0,15
255.0,36.06014556888,60,0.036,7.97e-09,336000000.0,112.0,15
256.0,36.10835990909,60,0.036,7.97e-09,336000000.0,112.0,15
257.0,36.1565742493,60,0.036,7.97e-09,336000000.0,112.0,15
258.0,36.20383262637,60,0.036,7.97e-09,336000000.0,112.0,15
259.0,36.25109100344,60,0.036,7.97e-09,336000000.0,112.0,15
260.0,36.29834938051,60,0.036,7.97e-09,336000000.0,112.0,15
261.0,36.34560775758,60,0.036,7.97e-09,336000000.0,112.0,15
262.0,36.39286613465,60,0.036,7.97e-09,336000000.0,112.0,15
263.0,36.44012451172,60,0.036,7.97e-09,336000000.0,112.0,15
264.0,36.48738288879,60,0.036,7.97e-09,336000000.0,112.0,15
265.0,36.53464126586,60,0.036,7.97e-09,336000000.0,112.0,15
266.0,36.58189964293,60,0.036,7.97e-09,336000000.0,112.0,15
267.0,36.62915802,60,0.036,7.97e-09,336000000.0,112.0,15
268.0,36.6754798889,60,0.036,7.97e-09,336000000.0,112.0,15
269.0,36.7218017578,60,0.036,7.97e-09,336000000.0,112.0,15
270.0,36.7681236267,60,0.036,7.97e-09,336000000.0,112.0,15
271.0,36.8144454956,60,0.036,7.97e-09,336000000.0,112.0,15
272.0,36.8607673645,60,0.036,7.97e-09,336000000.0,112.0,15
273.0,36.9070892334,60,0.036,7.97e-09,336000000.0,112.0,15
274.0,36.9534111023,60,0.036,7.97e-09,336000000.0,112.0,15
275.0,36.9997329712,60,0.036,7.97e-09,336000000.0,112.0,15
276.0,37.0460548401,60,0.036,7.97e-09,336000000.0,112.0,15
277.0,37.092376709,60,0.036,7.97e-09,336000000.0,112.0,15
278.0,37.13778038026,60,0.036,7.97e-09,336000000.0,112.0,15
279.0,37.18318405152,60,0.036,7.97e-09,336000000.0,112.0,15
280.0,37.22858772278,60,0.036,7.97e-09,336000000.0,112.0,15
281.0,37.27399139404,60,0.036,7.97e-09,336000000.0,112.0,15
282.0,37.3193950653,60,0.036,7.97e-09,336000000.0,112.0,15
283.0,37.36479873656,60,0.036,7.97e-09,336000000.0,112.0,15
284.0,37.41020240782,60,0.036,7.97e-09,336000000.0,112.0,15
285.0,37.45560607908,60,0.036,7.97e-09,336000000.0,112.0,15
286.0,37.50100975034,60,0.036,7.97e-09,336000000.0,112.0,15
287.0,37.5464134216,60,0.036,7.97e-09,336000000.0,112.0,15
288.0,37.59091720578,60,0.036,7.97e-09,336000000.0,112.0,15
289.0,37.63542098996,60,0.036,7.97e-09,336000000.0,112.0,15
290.0,37.67992477414,60,0.036,7.97e-09,336000000.0,112.0,15
291.0,37.72442855832,60,0.036,7.97e-09,336000000.0,112.0,15
292.0,37.7689323425,60,0.036,7.97e-09,336000000.0,112.0,15
293.0,37.81343612668,60,0.036,7.97e-09,336000000.0,112.0,15
294.0,37.85793991086,60,0.036,7.97e-09,336000000.0,112.0,15
295.0,37.90244369504,60,0.036,7.97e-09,336000000.0,112.0,15
296.0,37.94694747922,60,0.036,7.97e-09,336000000.0,112.0,15
297.0,37.9914512634,60,0.036,7.97e-09,336000000.0,112.0,15
298.0,38.0350727081,60,0.036,7.97e-09,336000000.0,112.0,15
299.0,38.0786941528,60,0.036,7.97e-09,336000000.0,112.0,15
300.0,38.1223155975,60,0.036,7.97e-09,336000000.0,112.0,15
301.0,38.1659370422,60,0.036,7.97e-09,336000000.0,112.0,15
302.0,38.2095584869,60,0.036,7.97e-09,336000000.0,112.0,15
303.0,38.2531799316,60,0.036,7.97e-09,336000000.0,112.0,15
304.0,38.2968013763,60,0.036,7.97e-09,336000000.0,112.0,15
305.0,38.340422821,60,0.036,7.97e-09,336000000.0,112.0,15
306.0,38.3840442657,60,0.036,7.97e-09,336000000.0,112.0,15
307.0,38.4276657104,60,0.036,7.97e-09,336000000.0,112.0,15
308.0,38.47042312618,60,0.036,7.97e-09,336000000.0,112.0,15
309.0,38.51318054196,60,0.036,7.97e-09,336000000.0,112.0,15
310.0,38.55593795774,60,0.036,7.97e-09,336000000.0,112.0,15
311.0,38.59869537352,60,0.036,7.97e-09,336000000.0,112.0,15
312.0,38.6414527893,60,0.036,7.97e-09,336000000.0,112.0,15
313.0,38.68421020508,60,0.036,7.97e-09,336000000.0,112.0,15
314.0,38.72696762086,60,0.036,7.97e-09,336000000.0,112.0,15
315.0,38.76972503664,60,0.036,7.97e-09,336000000.0,112.0,15
316.0,38.81248245242,60,0.036,7.97e-09,336000000.0,112.0,15
317.0,38.8552398682,60,0.036,7.97e-09,336000000.0,112.0,15
318.0,38.89714927677,60,0.036,7.97e-09,336000000.0,112.0,15
319.0,38.93905868534,60,0.036,7.97e-09,336000000.0,112.0,15
320.0,38.98096809391,60,0.036,7.97e-09,336000000.0,112.0,15
321.0,39.02287750248,60,0.036,7.97e-09,336000000.0,112.0,15
322.0,39.06478691105,60,0.036,7.97e-09,336000000.0,112.0,15
323.0,39.10669631962,60,0.036,7.97e-09,336000000.0,112.0,15
324.0,39.14860572819,60,0.036,7.97e-09,336000000.0,112.0,15
325.0,39.19051513676,60,0.036,7.97e-09,336000000.0,112.0,15
326.0,39.23242454533,60,0.036,7.97e-09,336000000.0,112.0,15
327.0,39.2743339539,60,0.036,7.97e-09,336000000.0,112.0,15
328.0,39.31541290287,60,0.036,7.97e-09,336000000.0,112.0,15
329.0,39.35649185184,60,0.036,7.97e-09,336000000.0,112.0,15
330.0,39.39757080081,60,0.036,7.97e-09,336000000.0,112.0,15
