time,T_int,T_ext_1,Film_Coef,Density,Specific_Heat,Thermal_Conductivity,Radius
1.0,21.9662628174,22.88,0.036,7.37e-09,136000000.0,92.0,25
2.0,21.9398269653,23.76,0.036,7.37e-09,136000000.0,92.0,25
3.0,21.9175262451,24.64,0.036,7.37e-09,136000000.0,92.0,25
4.0,21.9000635147,25.52,0.036,7.37e-09,136000000.0,92.0,25
5.0,21.8826007843,26.4,0.036,7.37e-09,136000000.0,92.0,25
6.0,21.872134685525,27.28,0.036,7.37e-09,136000000.0,92.0,25
7.0,21.86166858675,28.16,0.036,7.37e-09,136000000.0,92.0,25
8.0,21.851202487975,29.04,0.036,7.37e-09,136000000.0,92.0,25
9.0,21.8407363892,29.92,0.036,7.37e-09,136000000.0,92.0,25
10.0,21.842659711875,30.8,0.036,7.37e-09,136000000.0,92.0,25
11.0,21.84458303455,31.68,0.036,7.37e-09,136000000.0,92.0,25
12.0,21.846506357225,32.56,0.036,7.37e-09,136000000.0,92.0,25
13.0,21.8484296799,33.44,0.036,7.37e-09,136000000.0,92.0,25
14.0,21.850353002575,34.32,0.036,7.37e-09,136000000.0,92.0,25
15.0,21.85227632525,35.2,0.036,7.37e-09,136000000.0,92.0,25
16.0,21.854199647925,36.08,0.036,7.37e-09,136000000.0,92.0,25
17.0,21.8561229706,36.96,0.036,7.37e-09,136000000.0,92.0,25
18.0,21.87311172487,37.84,0.036,7.37e-09,136000000.0,92.0,25
19.0,21.89010047914,38.72,0.036,7.37e-09,136000000.0,92.0,25
20.0,21.90708923341,39.6,0.036,7.37e-09,136000000.0,92.0,25
21.0,21.92407798768,40.48,0.036,7.37e-09,136000000.0,92.0,25
22.0,21.94106674195,41.36,0.036,7.37e-09,136000000.0,92.0,25
23.0,21.95805549622,42.24,0.036,7.37e-09,136000000.0,92.0,25
24.0,21.97504425049,43.12,0.036,7.37e-09,136000000.0,92.0,25
25.0,21.99203300476,44.0,0.036,7.37e-09,136000000.0,92.0,25
26.0,22.00902175903,44.88,0.036,7.37e-09,136000000.0,92.0,25
27.0,22.0260105133,45.76,0.036,7.37e-09,136000000.0,92.0,25
28.0,22.05791378021,46.64,0.036,7.37e-09,136000000.0,92.0,25
29.0,22.08981704712,47.52,0.036,7.37e-09,136000000.0,92.0,25
30.0,22.12172031403,48.4,0.036,7.37e-09,136000000.0,92.0,25
31.0,22.15362358094,49.28,0.036,7.37e-09,136000000.0,92.0,25
32.0,22.18552684785,50.16,0.036,7.37e-09,136000000.0,92.0,25
33.0,22.21743011476,51.04,0.036,7.37e-09,136000000.0,92.0,25
34.0,22.24933338167,51.92,0.036,7.37e-09,136000000.0,92.0,25
35.0,22.28123664858,52.8,0.036,7.37e-09,136000000.0,92.0,25
36.0,22.31313991549,53.68,0.036,7.37e-09,136000000.0,92.0,25
37.0,22.3450431824,54.56,0.036,7.37e-09,136000000.0,92.0,25
38.0,22.39172515872,55.44,0.036,7.37e-09,136000000.0,92.0,25
39.0,22.43840713504,56.32,0.036,7.37e-09,136000000.0,92.0,25
40.0,22.48508911136,57.2,0.036,7.37e-09,136000000.0,92.0,25
41.0,22.53177108768,58.08,0.036,7.37e-09,136000000.0,92.0,25
42.0,22.578453064,58.96,0.036,7.37e-09,136000000.0,92.0,25
43.0,22.62513504032,59.84,0.036,7.37e-09,136000000.0,92.0,25
44.0,22.67181701664,60.72,0.036,7.37e-09,136000000.0,92.0,25
45.0,22.71849899296,61.6,0.036,7.37e-09,136000000.0,92.0,25
46.0,22.76518096928,62.48,0.036,7.37e-09,136000000.0,92.0,25
47.0,22.8118629456,63.36,0.036,7.37e-09,136000000.0,92.0,25
48.0,22.86078224186,64.24,0.036,7.37e-09,136000000.0,92.0,25
49.0,22.90970153812,65.12,0.036,7.37e-09,136000000.0,92.0,25
50.0,22.95862083438,66.0,0.036,7.37e-09,136000000.0,92.0,25
51.0,23.00754013064,62.94,0.036,7.37e-09,136000000.0,92.0,25
52.0,23.0564594269,62.88,0.036,7.37e-09,136000000.0,92.0,25
53.0,23.10537872316,62.82,0.036,7.37e-09,136000000.0,92.0,25
54.0,23.15429801942,62.76,0.036,7.37e-09,136000000.0,92.0,25
55.0,23.20321731568,62.7,0.036,7.37e-09,136000000.0,92.0,25
56.0,23.25213661194,62.64,0.036,7.37e-09,136000000.0,92.0,25
57.0,23.3010559082,62.58,0.036,7.37e-09,136000000.0,92.0,25
58.0,23.34765968322,62.52,0.036,7.37e-09,136000000.0,92.0,25
59.0,23.39426345824,62.46,0.036,7.37e-09,136000000.0,92.0,25
60.0,23.44086723326,62.4,0.036,7.37e-09,136000000.0,92.0,25
61.0,23.48747100828,62.34,0.036,7.37e-09,136000000.0,92.0,25
62.0,23.5340747833,62.28,0.036,7.37e-09,136000000.0,92.0,25
63.0,23.58067855832,62.22,0.036,7.37e-09,136000000.0,92.0,25
64.0,23.62728233334,62.16,0.036,7.37e-09,136000000.0,92.0,25
65.0,23.67388610836,62.1,0.036,7.37e-09,136000000.0,92.0,25
66.0,23.72048988338,62.04,0.036,7.37e-09,136000000.0,92.0,25
67.0,23.7670936584,61.98,0.036,7.37e-09,136000000.0,92.0,25
68.0,23.81180019374,61.92,0.036,7.37e-09,136000000.0,92.0,25
69.0,23.85650672908,61.86,0.036,7.37e-09,136000000.0,92.0,25
70.0,23.90121326442,61.8,0.036,7.37e-09,136000000.0,92.0,25
71.0,23.94591979976,61.74,0.036,7.37e-09,136000000.0,92.0,25
72.0,23.9906263351,61.68,0.036,7.37e-09,136000000.0,92.0,25
73.0,24.03533287044,61.62,0.036,7.37e-09,136000000.0,92.0,25
74.0,24.08003940578,61.56,0.036,7.37e-09,136000000.0,92.0,25
75.0,24.12474594112,61.5,0.036,7.37e-09,136000000.0,92.0,25
76.0,24.16945247646,61.44,0.036,7.37e-09,136000000.0,92.0,25
77.0,24.2141590118,61.38,0.036,7.37e-09,136000000.0,92.0,25
78.0,24.25700569149,61.32,0.036,7.37e-09,136000000.0,92.0,25
79.0,24.29985237118,61.26,0.036,7.37e-09,136000000.0,92.0,25
80.0,24.34269905087,61.2,0.036,7.37e-09,136000000.0,92.0,25
81.0,24.38554573056,61.14,0.036,7.37e-09,136000000.0,92.0,25
82.0,24.42839241025,61.08,0.036,7.37e-09,136000000.0,92.0,25
83.0,24.47123908994,61.02,0.036,7.37e-09,136000000.0,92.0,25
84.0,24.51408576963,60.96,0.036,7.37e-09,136000000.0,92.0,25
85.0,24.55693244932,60.9,0.036,7.37e-09,136000000.0,92.0,25
86.0,24.59977912901,60.84,0.036,7.37e-09,136000000.0,92.0,25
87.0,24.6426258087,60.78,0.036,7.37e-09,136000000.0,92.0,25
88.0,24.68362026213,60.72,0.036,7.37e-09,136000000.0,92.0,25
89.0,24.72461471556,60.66,0.036,7.37e-09,136000000.0,92.0,25
90.0,24.76560916899,60.6,0.036,7.37e-09,136000000.0,92.0,25
91.0,24.80660362242,60.54,0.036,7.37e-09,136000000.0,92.0,25
92.0,24.84759807585,60.48,0.036,7.37e-09,136000000.0,92.0,25
93.0,24.88859252928,60.42,0.036,7.37e-09,136000000.0,92.0,25
94.0,24.92958698271,60.36,0.036,7.37e-09,136000000.0,92.0,25
95.0,24.97058143614,60.3,0.036,7.37e-09,136000000.0,92.0,25
96.0,25.01157588957,60.24,0.036,7.37e-09,136000000.0,92.0,25
97.0,25.052570343,60.18,0.036,7.37e-09,136000000.0,92.0,25
98.0,25.09275588988,60.12,0.036,7.37e-09,136000000.0,92.0,25
99.0,25.13294143676,60.06,0.036,7.37e-09,136000000.0,92.0,25
100.0,25.17312698364,60.0,0.036,7.37e-09,136000000.0,92.0,25
101.0,25.21331253052,60,0.036,7.37e-09,136000000.0,92.0,25
102.0,25.2534980774,60,0.036,7.37e-09,136000000.0,92.0,25
103.0,25.29368362428,60,0.036,7.37e-09,136000000.0,92.0,25
104.0,25.33386917116,60,0.036,7.37e-09,136000000.0,92.0,25
105.0,25.37405471804,60,0.036,7.37e-09,136000000.0,92.0,25
106.0,25.41424026492,60,0.036,7.37e-09,136000000.0,92.0,25
107.0,25.4544258118,60,0.036,7.37e-09,136000000.0,92.0,25
108.0,25.49418449405,60,0.036,7.37e-09,136000000.0,92.0,25
109.0,25.5339431763,60,0.036,7.37e-09,136000000.0,92.0,25
110.0,25.57370185855,60,0.036,7.37e-09,136000000.0,92.0,25
111.0,25.6134605408,60,0.036,7.37e-09,136000000.0,92.0,25
112.0,25.65321922305,60,0.036,7.37e-09,136000000.0,92.0,25
113.0,25.6929779053,60,0.036,7.37e-09,136000000.0,92.0,25
114.0,25.73273658755,60,0.036,7.37e-09,136000000.0,92.0,25
115.0,25.7724952698,60,0.036,7.37e-09,136000000.0,92.0,25
116.0,25.81225395205,60,0.036,7.37e-09,136000000.0,92.0,25
117.0,25.8520126343,60,0.036,7.37e-09,136000000.0,92.0,25
118.0,25.89131431582,60,0.036,7.37e-09,136000000.0,92.0,25
119.0,25.93061599734,60,0.036,7.37e-09,136000000.0,92.0,25
120.0,25.96991767886,60,0.036,7.37e-09,136000000.0,92.0,25
121.0,26.00921936038,60,0.036,7.37e-09,136000000.0,92.0,25
122.0,26.0485210419,60,0.036,7.37e-09,136000000.0,92.0,25
123.0,26.08782272342,60,0.036,7.37e-09,136000000.0,92.0,25
124.0,26.12712440494,60,0.036,7.37e-09,136000000.0,92.0,25
125.0,26.16642608646,60,0.036,7.37e-09,136000000.0,92.0,25
126.0,26.20572776798,60,0.036,7.37e-09,136000000.0,92.0,25
127.0,26.2450294495,60,0.036,7.37e-09,136000000.0,92.0,25
128.0,26.28387699131,60,0.036,7.37e-09,136000000.0,92.0,25
129.0,26.32272453312,60,0.036,7.37e-09,136000000.0,92.0,25
130.0,26.36157207493,60,0.036,7.37e-09,136000000.0,92.0,25
131.0,26.40041961674,60,0.036,7.37e-09,136000000.0,92.0,25
132.0,26.43926715855,60,0.036,7.37e-09,136000000.0,92.0,25
133.0,26.47811470036,60,0.036,7.37e-09,136000000.0,92.0,25
134.0,26.51696224217,60,0.036,7.37e-09,136000000.0,92.0,25
135.0,26.55580978398,60,0.036,7.37e-09,136000000.0,92.0,25
136.0,26.59465732579,60,0.036,7.37e-09,136000000.0,92.0,25
137.0,26.6335048676,60,0.036,7.37e-09,136000000.0,92.0,25
138.0,26.67190399174,60,0.036,7.37e-09,136000000.0,92.0,25
139.0,26.71030311588,60,0.036,7.37e-09,136000000.0,92.0,25
140.0,26.74870224002,60,0.036,7.37e-09,136000000.0,92.0,25
141.0,26.78710136416,60,0.036,7.37e-09,136000000.0,92.0,25
142.0,26.8255004883,60,0.036,7.37e-09,136000000.0,92.0,25
143.0,26.86389961244,60,0.036,7.37e-09,136000000.0,92.0,25
144.0,26.90229873658,60,0.036,7.37e-09,136000000.0,92.0,25
145.0,26.94069786072,60,0.036,7.37e-09,136000000.0,92.0,25
146.0,26.97909698486,60,0.036,7.37e-09,136000000.0,92.0,25
147.0,27.017496109,60,0.036,7.37e-09,136000000.0,92.0,25
148.0,27.055452919,60,0.036,7.37e-09,136000000.0,92.0,25
149.0,27.093409729,60,0.036,7.37e-09,136000000.0,92.0,25
150.0,27.131366539,60,0.036,7.37e-09,136000000.0,92.0,25
151.0,27.169323349,60,0.036,7.37e-09,136000000.0,92.0,25
152.0,27.207280159,60,0.036,7.37e-09,136000000.0,92.0,25
153.0,27.245236969,60,0.036,7.37e-09,136000000.0,92.0,25
154.0,27.283193779,60,0.036,7.37e-09,136000000.0,92.0,25
155.0,27.321150589,60,0.036,7.37e-09,136000000.0,92.0,25
156.0,27.359107399,60,0.036,7.37e-09,136000000.0,92.0,25
157.0,27.397064209,60,0.036,7.37e-09,136000000.0,92.0,25
158.0,27.43458366395,60,0.036,7.37e-09,136000000.0,92.0,25
159.0,27.4721031189,60,0.036,7.37e-09,136000000.0,92.0,25
160.0,27.50962257385,60,0.036,7.37e-09,136000000.0,92.0,25
161.0,27.5471420288,60,0.036,7.37e-09,136000000.0,92.0,25
162.0,27.58466148375,60,0.036,7.37e-09,136000000.0,92.0,25
163.0,27.6221809387,60,0.036,7.37e-09,136000000.0,92.0,25
164.0,27.65970039365,60,0.036,7.37e-09,136000000.0,92.0,25
165.0,27.6972198486,60,0.036,7.37e-09,136000000.0,92.0,25
166.0,27.73473930355,60,0.036,7.37e-09,136000000.0,92.0,25
167.0,27.7722587585,60,0.036,7.37e-09,136000000.0,92.0,25
168.0,27.809346199,60,0.036,7.37e-09,136000000.0,92.0,25
169.0,27.8464336395,60,0.036,7.37e-09,136000000.0,92.0,25
170.0,27.88352108,60,0.036,7.37e-09,136000000.0,92.0,25
171.0,27.9206085205,60,0.036,7.37e-09,136000000.0,92.0,25
172.0,27.957695961,60,0.036,7.37e-09,136000000.0,92.0,25
173.0,27.9947834015,60,0.036,7.37e-09,136000000.0,92.0,25
174.0,28.031870842,60,0.036,7.37e-09,136000000.0,92.0,25
175.0,28.0689582825,60,0.036,7.37e-09,136000000.0,92.0,25
176.0,28.106045723,60,0.036,7.37e-09,136000000.0,92.0,25
177.0,28.1431331635,60,0.036,7.37e-09,136000000.0,92.0,25
178.0,28.1797939301,60,0.036,7.37e-09,136000000.0,92.0,25
179.0,28.2164546967,60,0.036,7.37e-09,136000000.0,92.0,25
180.0,28.2531154633,60,0.036,7.37e-09,136000000.0,92.0,25
181.0,28.2897762299,60,0.036,7.37e-09,136000000.0,92.0,25
182.0,28.3264369965,60,0.036,7.37e-09,136000000.0,92.0,25
183.0,28.3630977631,60,0.036,7.37e-09,136000000.0,92.0,25
184.0,28.3997585297,60,0.036,7.37e-09,136000000.0,92.0,25
185.0,28.4364192963,60,0.036,7.37e-09,136000000.0,92.0,25
186.0,28.4730800629,60,0.036,7.37e-09,136000000.0,92.0,25
187.0,28.5097408295,60,0.036,7.37e-09,136000000.0,92.0,25
188.0,28.54597949985,60,0.036,7.37e-09,136000000.0,92.0,25
189.0,28.5822181702,60,0.036,7.37e-09,136000000.0,92.0,25
190.0,28.61845684055,60,0.036,7.37e-09,136000000.0,92.0,25
191.0,28.6546955109,60,0.036,7.37e-09,136000000.0,92.0,25
192.0,28.69093418125,60,0.036,7.37e-09,136000000.0,92.0,25
193.0,28.7271728516,60,0.036,7.37e-09,136000000.0,92.0,25
194.0,28.76341152195,60,0.036,7.37e-09,136000000.0,92.0,25
195.0,28.7996501923,60,0.036,7.37e-09,136000000.0,92.0,25
196.0,28.83588886265,60,0.036,7.37e-09,136000000.0,92.0,25
197.0,28.872127533,60,0.036,7.37e-09,136000000.0,92.0,25
198.0,28.90794925693,60,0.036,7.37e-09,136000000.0,92.0,25
199.0,28.94377098086,60,0.036,7.37e-09,136000000.0,92.0,25
200.0,28.97959270479,60,0.036,7.37e-09,136000000.0,92.0,25
201.0,29.01541442872,60,0.036,7.37e-09,136000000.0,92.0,25
202.0,29.05123615265,60,0.036,7.37e-09,136000000.0,92.0,25
203.0,29.08705787658,60,0.036,7.37e-09,136000000.0,92.0,25
204.0,29.12287960051,60,0.036,7.37e-09,136000000.0,92.0,25
205.0,29.15870132444,60,0.036,7.37e-09,136000000.0,92.0,25
206.0,29.19452304837,60,0.036,7.37e-09,136000000.0,92.0,25
207.0,29.2303447723,60,0.036,7.37e-09,136000000.0,92.0,25
208.0,29.2657543182,60,0.036,7.37e-09,136000000.0,92.0,25
209.0,29.3011638641,60,0.036,7.37e-09,136000000.0,92.0,25
210.0,29.33657341,60,0.036,7.37e-09,136000000.0,92.0,25
211.0,29.3719829559,60,0.036,7.37e-09,136000000.0,92.0,25
212.0,29.4073925018,60,0.036,7.37e-09,136000000.0,92.0,25
213.0,29.4428020477,60,0.036,7.37e-09,136000000.0,92.0,25
214.0,29.4782115936,60,0.036,7.37e-09,136000000.0,92.0,25
215.0,29.5136211395,60,0.036,7.37e-09,136000000.0,92.0,25
216.0,29.5490306854,60,0.036,7.37e-09,136000000.0,92.0,25
217.0,29.5844402313,60,0.036,7.37e-09,136000000.0,92.0,25
218.0,29.6194421768,60,0.036,7.37e-09,136000000.0,92.0,25
219.0,29.6544441223,60,0.036,7.37e-09,136000000.0,92.0,25
220.0,29.6894460678,60,0.036,7.37e-09,136000000.0,92.0,25
221.0,29.7244480133,60,0.036,7.37e-09,136000000.0,92.0,25
222.0,29.7594499588,60,0.036,7.37e-09,136000000.0,92.0,25
223.0,29.7944519043,60,0.036,7.37e-09,136000000.0,92.0,25
224.0,29.8294538498,60,0.036,7.37e-09,136000000.0,92.0,25
225.0,29.8644557953,60,0.036,7.37e-09,136000000.0,92.0,25
226.0,29.8994577408,60,0.036,7.37e-09,136000000.0,92.0,25
227.0,29.9344596863,60,0.036,7.37e-09,136000000.0,92.0,25
228.0,29.96905879976,60,0.036,7.37e-09,136000000.0,92.0,25
229.0,30.00365791322,60,0.036,7.37e-09,136000000.0,92.0,25
230.0,30.03825702668,60,0.036,7.37e-09,136000000.0,92.0,25
231.0,30.07285614014,60,0.036,7.37e-09,136000000.0,92.0,25
232.0,30.1074552536,60,0.036,7.37e-09,136000000.0,92.0,25
233.0,30.14205436706,60,0.036,7.37e-09,136000000.0,92.0,25
234.0,30.17665348052,60,0.036,7.37e-09,136000000.0,92.0,25
235.0,30.21125259398,60,0.036,7.37e-09,136000000.0,92.0,25
236.0,30.24585170744,60,0.036,7.37e-09,136000000.0,92.0,25
237.0,30.2804508209,60,0.036,7.37e-09,136000000.0,92.0,25
238.0,30.31465187071,60,0.036,7.37e-09,136000000.0,92.0,25
239.0,30.34885292052,60,0.036,7.37e-09,136000000.0,92.0,25
240.0,30.38305397033,60,0.036,7.37e-09,136000000.0,92.0,25
241.0,30.41725502014,60,0.036,7.37e-09,136000000.0,92.0,25
242.0,30.45145606995,60,0.036,7.37e-09,136000000.0,92.0,25
243.0,30.48565711976,60,0.036,7.37e-09,136000000.0,92.0,25
244.0,30.51985816957,60,0.036,7.37e-09,136000000.0,92.0,25
245.0,30.55405921938,60,0.036,7.37e-09,136000000.0,92.0,25
246.0,30.58826026919,60,0.036,7.37e-09,136000000.0,92.0,25
247.0,30.622461319,60,0.036,7.37e-09,136000000.0,92.0,25
248.0,30.65626869204,60,0.036,7.37e-09,136000000.0,92.0,25
249.0,30.69007606508,60,0.036,7.37e-09,136000000.0,92.0,25
250.0,30.72388343812,60,0.036,7.37e-09,136000000.0,92.0,25
251.0,30.75769081116,60,0.036,7.37e-09,136000000.0,92.0,25
252.0,30.7914981842,60,0.036,7.37e-09,136000000.0,92.0,25
253.0,30.82530555724,60,0.036,7.37e-09,136000000.0,92.0,25
254.0,30.85911293028,60,0.036,7.37e-09,136000000.0,92.0,25
255.0,30.89292030332,60,0.036,7.37e-09,136000000.0,92.0,25
256.0,30.92672767636,60,0.036,7.37e-09,136000000.0,92.0,25
257.0,30.9605350494,60,0.036,7.37e-09,136000000.0,92.0,25
258.0,30.99395351406,60,0.036,7.37e-09,136000000.0,92.0,25
259.0,31.02737197872,60,0.036,7.37e-09,136000000.0,92.0,25
260.0,31.06079044338,60,0.036,7.37e-09,136000000.0,92.0,25
261.0,31.09420890804,60,0.036,7.37e-09,136000000.0,92.0,25
262.0,31.1276273727,60,0.036,7.37e-09,136000000.0,92.0,25
263.0,31.16104583736,60,0.036,7.37e-09,136000000.0,92.0,25
264.0,31.19446430202,60,0.036,7.37e-09,136000000.0,92.0,25
265.0,31.22788276668,60,0.036,7.37e-09,136000000.0,92.0,25
266.0,31.26130123134,60,0.036,7.37e-09,136000000.0,92.0,25
267.0,31.294719696,60,0.036,7.37e-09,136000000.0,92.0,25
268.0,31.32775344845,60,0.036,7.37e-09,136000000.0,92.0,25
269.0,31.3607872009,60,0.036,7.37e-09,136000000.0,92.0,25
270.0,31.39382095335,60,0.036,7.37e-09,136000000.0,92.0,25
271.0,31.4268547058,60,0.036,7.37e-09,136000000.0,92.0,25
272.0,31.45988845825,60,0.036,7.37e-09,136000000.0,92.0,25
273.0,31.4929222107,60,0.036,7.37e-09,136000000.0,92.0,25
274.0,31.52595596315,60,0.036,7.37e-09,136000000.0,92.0,25
275.0,31.5589897156,60,0.036,7.37e-09,136000000.0,92.0,25
276.0,31.59202346805,60,0.036,7.37e-09,136000000.0,92.0,25
277.0,31.6250572205,60,0.036,7.37e-09,136000000.0,92.0,25
278.0,31.65771083835,60,0.036,7.37e-09,136000000.0,92.0,25
279.0,31.6903644562,60,0.036,7.37e-09,136000000.0,92.0,25
280.0,31.72301807405,60,0.036,7.37e-09,136000000.0,92.0,25
281.0,31.7556716919,60,0.036,7.37e-09,136000000.0,92.0,25
282.0,31.78832530975,60,0.036,7.37e-09,136000000.0,92.0,25
283.0,31.8209789276,60,0.036,7.37e-09,136000000.0,92.0,25
284.0,31.85363254545,60,0.036,7.37e-09,136000000.0,92.0,25
285.0,31.8862861633,60,0.036,7.37e-09,136000000.0,92.0,25
286.0,31.91893978115,60,0.036,7.37e-09,136000000.0,92.0,25
287.0,31.951593399,60,0.036,7.37e-09,136000000.0,92.0,25
288.0,31.98387126918,60,0.036,7.37e-09,136000000.0,92.0,25
289.0,32.01614913936,60,0.036,7.37e-09,136000000.0,92.0,25
290.0,32.04842700954,60,0.036,7.37e-09,136000000.0,92.0,25
291.0,32.08070487972,60,0.036,7.37e-09,136000000.0,92.0,25
292.0,32.1129827499,60,0.036,7.37e-09,136000000.0,92.0,25
293.0,32.14526062008,60,0.036,7.37e-09,136000000.0,92.0,25
294.0,32.17753849026,60,0.036,7.37e-09,136000000.0,92.0,25
295.0,32.20981636044,60,0.036,7.37e-09,136000000.0,92.0,25
296.0,32.24209423062,60,0.036,7.37e-09,136000000.0,92.0,25
297.0,32.2743721008,60,0.036,7.37e-09,136000000.0,92.0,25
298.0,32.3062786102,60,0.036,7.37e-09,136000000.0,92.0,25
299.0,32.3381851196,60,0.036,7.37e-09,136000000.0,92.0,25
300.0,32.370091629,60,0.036,7.37e-09,136000000.0,92.0,25
301.0,32.4019981384,60,0.036,7.37e-09,136000000.0,92.0,25
302.0,32.4339046478,60,0.036,7.37e-09,136000000.0,92.0,25
303.0,32.4658111572,60,0.036,7.37e-09,136000000.0,92.0,25
304.0,32.4977176666,60,0.036,7.37e-09,136000000.0,92.0,25
305.0,32.529624176,60,0.036,7.37e-09,136000000.0,92.0,25
306.0,32.5615306854,60,0.036,7.37e-09,136000000.0,92.0,25
307.0,32.5934371948,60,0.036,7.37e-09,136000000.0,92.0,25
308.0,32.62497634886,60,0.036,7.37e-09,136000000.0,92.0,25
309.0,32.65651550292,60,0.036,7.37e-09,136000000.0,92.0,25
310.0,32.68805465698,60,0.036,7.37e-09,136000000.0,92.0,25
311.0,32.71959381104,60,0.036,7.37e-09,136000000.0,92.0,25
312.0,32.7511329651,60,0.036,7.37e-09,136000000.0,92.0,25
313.0,32.78267211916,60,0.036,7.37e-09,136000000.0,92.0,25
314.0,32.81421127322,60,0.036,7.37e-09,136000000.0,92.0,25
315.0,32.84575042728,60,0.036,7.37e-09,136000000.0,92.0,25
316.0,32.87728958134,60,0.036,7.37e-09,136000000.0,92.0,25
317.0,32.9088287354,60,0.036,7.37e-09,136000000.0,92.0,25
318.0,32.94000511174,60,0.036,7.37e-09,136000000.0,92.0,25
319.0,32.97118148808,60,0.036,7.37e-09,136000000.0,92.0,25
320.0,33.00235786442,60,0.036,7.37e-09,136000000.0,92.0,25
321.0,33.03353424076,60,0.036,7.37e-09,136000000.0,92.0,25
322.0,33.0647106171,60,0.036,7.37e-09,136000000.0,92.0,25
323.0,33.09588699344,60,0.036,7.37e-09,136000000.0,92.0,25
324.0,33.12706336978,60,0.036,7.37e-09,136000000.0,92.0,25
325.0,33.15823974612,60,0.036,7.37e-09,136000000.0,92.0,25
326.0,33.18941612246,60,0.036,7.37e-09,136000000.0,92.0,25
327.0,33.2205924988,60,0.036,7.37e-09,136000000.0,92.0,25
328.0,33.25140991213,60,0.036,7.37e-09,136000000.0,92.0,25
329.0,33.28222732546,60,0.036,7.37e-09,136000000.0,92.0,25
330.0,33.31304473879,60,0.036,7.37e-09,136000000.0,92.0,25
331.0,33.34386215212,60,0.036,7.37e-09,136000000.0,92.0,25
332.0,33.37467956545,60,0.036,7.37e-09,136000000.0,92.0,25
333.0,33.40549697878,60,0.036,7.37e-09,136000000.0,92.0,25
334.0,33.43631439211,60,0.036,7.37e-09,136000000.0,92.0,25
335.0,33.46713180544,60,0.036,7.37e-09,136000000.0,92.0,25
336.0,33.49794921877,60,0.036,7.37e-09,136000000.0,92.0,25
337.0,33.5287666321,60,0.036,7.37e-09,136000000.0,92.0,25
