time,T_int,T_ext_1,Film_Coef,Density,Specific_Heat,Thermal_Conductivity,Radius
1.0,21.9538192749,22.88,0.036,7.97e-09,586000000.0,72.0,15
2.0,21.9155521393,23.76,0.036,7.97e-09,586000000.0,72.0,15
3.0,21.8834552765,24.64,0.036,7.97e-09,586000000.0,72.0,15
4.0,21.8598794937,25.52,0.036,7.97e-09,586000000.0,72.0,15
5.0,21.8363037109,26.4,0.036,7.97e-09,586000000.0,72.0,15
6.0,21.824057102175,27.28,0.036,7.97e-09,586000000.0,72.0,15
7.0,21.81181049345,28.16,0.036,7.97e-09,586000000.0,72.0,15
8.0,21.799563884725,29.04,0.036,7.97e-09,586000000.0,72.0,15
9.0,21.787317276,29.92,0.036,7.97e-09,586000000.0,72.0,15
10.0,21.7918434143,30.8,0.036,7.97e-09,586000000.0,72.0,15
11.0,21.7963695526,31.68,0.036,7.97e-09,586000000.0,72.0,15
12.0,21.8008956909,32.56,0.036,7.97e-09,586000000.0,72.0,15
13.0,21.8054218292,33.44,0.036,7.97e-09,586000000.0,72.0,15
14.0,21.8099479675,34.32,0.036,7.97e-09,586000000.0,72.0,15
15.0,21.8144741058,35.2,0.036,7.97e-09,586000000.0,72.0,15
16.0,21.8190002441,36.08,0.036,7.97e-09,586000000.0,72.0,15
17.0,21.8235263824,36.96,0.036,7.97e-09,586000000.0,72.0,15
18.0,21.84643993374,37.84,0.036,7.97e-09,586000000.0,72.0,15
19.0,21.86935348508,38.72,0.036,7.97e-09,586000000.0,72.0,15
20.0,21.89226703642,39.6,0.036,7.97e-09,586000000.0,72.0,15
21.0,21.91518058776,40.48,0.036,7.97e-09,586000000.0,72.0,15
22.0,21.9380941391,41.36,0.036,7.97e-09,586000000.0,72.0,15
23.0,21.96100769044,42.24,0.036,7.97e-09,586000000.0,72.0,15
24.0,21.98392124178,43.12,0.036,7.97e-09,586000000.0,72.0,15
25.0,22.00683479312,44.0,0.036,7.97e-09,586000000.0,72.0,15
26.0,22.02974834446,44.88,0.036,7.97e-09,586000000.0,72.0,15
27.0,22.0526618958,45.76,0.036,7.97e-09,586000000.0,72.0,15
28.0,22.09299106602,46.64,0.036,7.97e-09,586000000.0,72.0,15
29.0,22.13332023624,47.52,0.036,7.97e-09,586000000.0,72.0,15
30.0,22.17364940646,48.4,0.036,7.97e-09,586000000.0,72.0,15
31.0,22.21397857668,49.28,0.036,7.97e-09,586000000.0,72.0,15
32.0,22.2543077469,50.16,0.036,7.97e-09,586000000.0,72.0,15
33.0,22.29463691712,51.04,0.036,7.97e-09,586000000.0,72.0,15
34.0,22.33496608734,51.92,0.036,7.97e-09,586000000.0,72.0,15
35.0,22.37529525756,52.8,0.036,7.97e-09,586000000.0,72.0,15
36.0,22.41562442778,53.68,0.036,7.97e-09,586000000.0,72.0,15
37.0,22.455953598,54.56,0.036,7.97e-09,586000000.0,72.0,15
38.0,22.51322078703,55.44,0.036,7.97e-09,586000000.0,72.0,15
39.0,22.57048797606,56.32,0.036,7.97e-09,586000000.0,72.0,15
40.0,22.62775516509,57.2,0.036,7.97e-09,586000000.0,72.0,15
41.0,22.68502235412,58.08,0.036,7.97e-09,586000000.0,72.0,15
42.0,22.74228954315,58.96,0.036,7.97e-09,586000000.0,72.0,15
43.0,22.79955673218,59.84,0.036,7.97e-09,586000000.0,72.0,15
44.0,22.85682392121,60.72,0.036,7.97e-09,586000000.0,72.0,15
45.0,22.91409111024,61.6,0.036,7.97e-09,586000000.0,72.0,15
46.0,22.97135829927,62.48,0.036,7.97e-09,586000000.0,72.0,15
47.0,23.0286254883,63.36,0.036,7.97e-09,586000000.0,72.0,15
48.0,23.08639774324,64.24,0.036,7.97e-09,586000000.0,72.0,15
49.0,23.14416999818,65.12,0.036,7.97e-09,586000000.0,72.0,15
50.0,23.20194225312,66.0,0.036,7.97e-09,586000000.0,72.0,15
51.0,23.25971450806,62.94,0.036,7.97e-09,586000000.0,72.0,15
52.0,23.317486763,62.88,0.036,7.97e-09,586000000.0,72.0,15
53.0,23.37525901794,62.82,0.036,7.97e-09,586000000.0,72.0,15
54.0,23.43303127288,62.76,0.036,7.97e-09,586000000.0,72.0,15
55.0,23.49080352782,62.7,0.036,7.97e-09,586000000.0,72.0,15
56.0,23.54857578276,62.64,0.036,7.97e-09,586000000.0,72.0,15
57.0,23.6063480377,62.58,0.036,7.97e-09,586000000.0,72.0,15
58.0,23.65978202818,62.52,0.036,7.97e-09,586000000.0,72.0,15
59.0,23.71321601866,62.46,0.036,7.97e-09,586000000.0,72.0,15
60.0,23.76665000914,62.4,0.036,7.97e-09,586000000.0,72.0,15
61.0,23.82008399962,62.34,0.036,7.97e-09,586000000.0,72.0,15
62.0,23.8735179901,62.28,0.036,7.97e-09,586000000.0,72.0,15
63.0,23.92695198058,62.22,0.036,7.97e-09,586000000.0,72.0,15
64.0,23.98038597106,62.16,0.036,7.97e-09,586000000.0,72.0,15
65.0,24.03381996154,62.1,0.036,7.97e-09,586000000.0,72.0,15
66.0,24.08725395202,62.04,0.036,7.97e-09,586000000.0,72.0,15
67.0,24.1406879425,61.98,0.036,7.97e-09,586000000.0,72.0,15
68.0,24.1912940979,61.92,0.036,7.97e-09,586000000.0,72.0,15
69.0,24.2419002533,61.86,0.036,7.97e-09,586000000.0,72.0,15
70.0,24.2925064087,61.8,0.036,7.97e-09,586000000.0,72.0,15
71.0,24.3431125641,61.74,0.036,7.97e-09,586000000.0,72.0,15
72.0,24.3937187195,61.68,0.036,7.97e-09,586000000.0,72.0,15
73.0,24.4443248749,61.62,0.036,7.97e-09,586000000.0,72.0,15
74.0,24.4949310303,61.56,0.036,7.97e-09,586000000.0,72.0,15
75.0,24.5455371857,61.5,0.036,7.97e-09,586000000.0,72.0,15
76.0,24.5961433411,61.44,0.036,7.97e-09,586000000.0,72.0,15
77.0,24.6467494965,61.38,0.036,7.97e-09,586000000.0,72.0,15
78.0,24.69497852329,61.32,0.036,7.97e-09,586000000.0,72.0,15
79.0,24.74320755008,61.26,0.036,7.97e-09,586000000.0,72.0,15
80.0,24.79143657687,61.2,0.036,7.97e-09,586000000.0,72.0,15
81.0,24.83966560366,61.14,0.036,7.97e-09,586000000.0,72.0,15
82.0,24.88789463045,61.08,0.036,7.97e-09,586000000.0,72.0,15
83.0,24.93612365724,61.02,0.036,7.97e-09,586000000.0,72.0,15
84.0,24.98435268403,60.96,0.036,7.97e-09,586000000.0,72.0,15
85.0,25.03258171082,60.9,0.036,7.97e-09,586000000.0,72.0,15
86.0,25.08081073761,60.84,0.036,7.97e-09,586000000.0,72.0,15
87.0,25.1290397644,60.78,0.036,7.97e-09,586000000.0,72.0,15
88.0,25.17505512237,60.72,0.036,7.97e-09,586000000.0,72.0,15
89.0,25.22107048034,60.66,0.036,7.97e-09,586000000.0,72.0,15
90.0,25.26708583831,60.6,0.036,7.97e-09,586000000.0,72.0,15
91.0,25.31310119628,60.54,0.036,7.97e-09,586000000.0,72.0,15
92.0,25.35911655425,60.48,0.036,7.97e-09,586000000.0,72.0,15
93.0,25.40513191222,60.42,0.036,7.97e-09,586000000.0,72.0,15
94.0,25.45114727019,60.36,0.036,7.97e-09,586000000.0,72.0,15
95.0,25.49716262816,60.3,0.036,7.97e-09,586000000.0,72.0,15
96.0,25.54317798613,60.24,0.036,7.97e-09,586000000.0,72.0,15
97.0,25.5891933441,60.18,0.036,7.97e-09,586000000.0,72.0,15
98.0,25.63440704344,60.12,0.036,7.97e-09,586000000.0,72.0,15
99.0,25.67962074278,60.06,0.036,7.97e-09,586000000.0,72.0,15
100.0,25.72483444212,60.0,0.036,7.97e-09,586000000.0,72.0,15
101.0,25.77004814146,60,0.036,7.97e-09,586000000.0,72.0,15
102.0,25.8152618408,60,0.036,7.97e-09,586000000.0,72.0,15
103.0,25.86047554014,60,0.036,7.97e-09,586000000.0,72.0,15
104.0,25.90568923948,60,0.036,7.97e-09,586000000.0,72.0,15
105.0,25.95090293882,60,0.036,7.97e-09,586000000.0,72.0,15
106.0,25.99611663816,60,0.036,7.97e-09,586000000.0,72.0,15
107.0,26.0413303375,60,0.036,7.97e-09,586000000.0,72.0,15
108.0,26.08616065977,60,0.036,7.97e-09,586000000.0,72.0,15
109.0,26.13099098204,60,0.036,7.97e-09,586000000.0,72.0,15
110.0,26.17582130431,60,0.036,7.97e-09,586000000.0,72.0,15
111.0,26.22065162658,60,0.036,7.97e-09,586000000.0,72.0,15
112.0,26.26548194885,60,0.036,7.97e-09,586000000.0,72.0,15
113.0,26.31031227112,60,0.036,7.97e-09,586000000.0,72.0,15
114.0,26.35514259339,60,0.036,7.97e-09,586000000.0,72.0,15
115.0,26.39997291566,60,0.036,7.97e-09,586000000.0,72.0,15
116.0,26.44480323793,60,0.036,7.97e-09,586000000.0,72.0,15
117.0,26.4896335602,60,0.036,7.97e-09,586000000.0,72.0,15
118.0,26.53395900728,60,0.036,7.97e-09,586000000.0,72.0,15
119.0,26.57828445436,60,0.036,7.97e-09,586000000.0,72.0,15
120.0,26.62260990144,60,0.036,7.97e-09,586000000.0,72.0,15
121.0,26.66693534852,60,0.036,7.97e-09,586000000.0,72.0,15
122.0,26.7112607956,60,0.036,7.97e-09,586000000.0,72.0,15
123.0,26.75558624268,60,0.036,7.97e-09,586000000.0,72.0,15
124.0,26.79991168976,60,0.036,7.97e-09,586000000.0,72.0,15
125.0,26.84423713684,60,0.036,7.97e-09,586000000.0,72.0,15
126.0,26.88856258392,60,0.036,7.97e-09,586000000.0,72.0,15
127.0,26.932888031,60,0.036,7.97e-09,586000000.0,72.0,15
128.0,26.97667293548,60,0.036,7.97e-09,586000000.0,72.0,15
129.0,27.02045783996,60,0.036,7.97e-09,586000000.0,72.0,15
130.0,27.06424274444,60,0.036,7.97e-09,586000000.0,72.0,15
131.0,27.10802764892,60,0.036,7.97e-09,586000000.0,72.0,15
132.0,27.1518125534,60,0.036,7.97e-09,586000000.0,72.0,15
133.0,27.19559745788,60,0.036,7.97e-09,586000000.0,72.0,15
134.0,27.23938236236,60,0.036,7.97e-09,586000000.0,72.0,15
135.0,27.28316726684,60,0.036,7.97e-09,586000000.0,72.0,15
136.0,27.32695217132,60,0.036,7.97e-09,586000000.0,72.0,15
137.0,27.3707370758,60,0.036,7.97e-09,586000000.0,72.0,15
138.0,27.41396980285,60,0.036,7.97e-09,586000000.0,72.0,15
139.0,27.4572025299,60,0.036,7.97e-09,586000000.0,72.0,15
140.0,27.50043525695,60,0.036,7.97e-09,586000000.0,72.0,15
141.0,27.543667984,60,0.036,7.97e-09,586000000.0,72.0,15
142.0,27.58690071105,60,0.036,7.97e-09,586000000.0,72.0,15
143.0,27.6301334381,60,0.036,7.97e-09,586000000.0,72.0,15
144.0,27.67336616515,60,0.036,7.97e-09,586000000.0,72.0,15
145.0,27.7165988922,60,0.036,7.97e-09,586000000.0,72.0,15
146.0,27.75983161925,60,0.036,7.97e-09,586000000.0,72.0,15
147.0,27.8030643463,60,0.036,7.97e-09,586000000.0,72.0,15
148.0,27.84574241637,60,0.036,7.97e-09,586000000.0,72.0,15
149.0,27.88842048644,60,0.036,7.97e-09,586000000.0,72.0,15
150.0,27.93109855651,60,0.036,7.97e-09,586000000.0,72.0,15
151.0,27.97377662658,60,0.036,7.97e-09,586000000.0,72.0,15
152.0,28.01645469665,60,0.036,7.97e-09,586000000.0,72.0,15
153.0,28.05913276672,60,0.036,7.97e-09,586000000.0,72.0,15
154.0,28.10181083679,60,0.036,7.97e-09,586000000.0,72.0,15
155.0,28.14448890686,60,0.036,7.97e-09,586000000.0,72.0,15
156.0,28.18716697693,60,0.036,7.97e-09,586000000.0,72.0,15
157.0,28.229845047,60,0.036,7.97e-09,586000000.0,72.0,15
158.0,28.27196979523,60,0.036,7.97e-09,586000000.0,72.0,15
159.0,28.31409454346,60,0.036,7.97e-09,586000000.0,72.0,15
160.0,28.35621929169,60,0.036,7.97e-09,586000000.0,72.0,15
161.0,28.39834403992,60,0.036,7.97e-09,586000000.0,72.0,15
162.0,28.44046878815,60,0.036,7.97e-09,586000000.0,72.0,15
163.0,28.48259353638,60,0.036,7.97e-09,586000000.0,72.0,15
164.0,28.52471828461,60,0.036,7.97e-09,586000000.0,72.0,15
165.0,28.56684303284,60,0.036,7.97e-09,586000000.0,72.0,15
166.0,28.60896778107,60,0.036,7.97e-09,586000000.0,72.0,15
167.0,28.6510925293,60,0.036,7.97e-09,586000000.0,72.0,15
168.0,28.69266777039,60,0.036,7.97e-09,586000000.0,72.0,15
169.0,28.73424301148,60,0.036,7.97e-09,586000000.0,72.0,15
170.0,28.77581825257,60,0.036,7.97e-09,586000000.0,72.0,15
171.0,28.81739349366,60,0.036,7.97e-09,586000000.0,72.0,15
172.0,28.85896873475,60,0.036,7.97e-09,586000000.0,72.0,15
173.0,28.90054397584,60,0.036,7.97e-09,586000000.0,72.0,15
174.0,28.94211921693,60,0.036,7.97e-09,586000000.0,72.0,15
175.0,28.98369445802,60,0.036,7.97e-09,586000000.0,72.0,15
176.0,29.02526969911,60,0.036,7.97e-09,586000000.0,72.0,15
177.0,29.0668449402,60,0.036,7.97e-09,586000000.0,72.0,15
178.0,29.10787525178,60,0.036,7.97e-09,586000000.0,72.0,15
179.0,29.14890556336,60,0.036,7.97e-09,586000000.0,72.0,15
180.0,29.18993587494,60,0.036,7.97e-09,586000000.0,72.0,15
181.0,29.23096618652,60,0.036,7.97e-09,586000000.0,72.0,15
182.0,29.2719964981,60,0.036,7.97e-09,586000000.0,72.0,15
183.0,29.31302680968,60,0.036,7.97e-09,586000000.0,72.0,15
184.0,29.35405712126,60,0.036,7.97e-09,586000000.0,72.0,15
185.0,29.39508743284,60,0.036,7.97e-09,586000000.0,72.0,15
186.0,29.43611774442,60,0.036,7.97e-09,586000000.0,72.0,15
187.0,29.477148056,60,0.036,7.97e-09,586000000.0,72.0,15
188.0,29.51763877866,60,0.036,7.97e-09,586000000.0,72.0,15
189.0,29.55812950132,60,0.036,7.97e-09,586000000.0,72.0,15
190.0,29.59862022398,60,0.036,7.97e-09,586000000.0,72.0,15
191.0,29.63911094664,60,0.036,7.97e-09,586000000.0,72.0,15
192.0,29.6796016693,60,0.036,7.97e-09,586000000.0,72.0,15
193.0,29.72009239196,60,0.036,7.97e-09,586000000.0,72.0,15
194.0,29.76058311462,60,0.036,7.97e-09,586000000.0,72.0,15
195.0,29.80107383728,60,0.036,7.97e-09,586000000.0,72.0,15
196.0,29.84156455994,60,0.036,7.97e-09,586000000.0,72.0,15
197.0,29.8820552826,60,0.036,7.97e-09,586000000.0,72.0,15
198.0,29.92201271058,60,0.036,7.97e-09,586000000.0,72.0,15
199.0,29.96197013856,60,0.036,7.97e-09,586000000.0,72.0,15
200.0,30.00192756654,60,0.036,7.97e-09,586000000.0,72.0,15
201.0,30.04188499452,60,0.036,7.97e-09,586000000.0,72.0,15
202.0,30.0818424225,60,0.036,7.97e-09,586000000.0,72.0,15
203.0,30.12179985048,60,0.036,7.97e-09,586000000.0,72.0,15
204.0,30.16175727846,60,0.036,7.97e-09,586000000.0,72.0,15
205.0,30.20171470644,60,0.036,7.97e-09,586000000.0,72.0,15
206.0,30.24167213442,60,0.036,7.97e-09,586000000.0,72.0,15
207.0,30.2816295624,60,0.036,7.97e-09,586000000.0,72.0,15
208.0,30.32105941774,60,0.036,7.97e-09,586000000.0,72.0,15
209.0,30.36048927308,60,0.036,7.97e-09,586000000.0,72.0,15
210.0,30.39991912842,60,0.036,7.97e-09,586000000.0,72.0,15
211.0,30.43934898376,60,0.036,7.97e-09,586000000.0,72.0,15
212.0,30.4787788391,60,0.036,7.97e-09,586000000.0,72.0,15
213.0,30.51820869444,60,0.036,7.97e-09,586000000.0,72.0,15
214.0,30.55763854978,60,0.036,7.97e-09,586000000.0,72.0,15
215.0,30.59706840512,60,0.036,7.97e-09,586000000.0,72.0,15
216.0,30.63649826046,60,0.036,7.97e-09,586000000.0,72.0,15
217.0,30.6759281158,60,0.036,7.97e-09,586000000.0,72.0,15
218.0,30.71483707424,60,0.036,7.97e-09,586000000.0,72.0,15
219.0,30.75374603268,60,0.036,7.97e-09,586000000.0,72.0,15
220.0,30.79265499112,60,0.036,7.97e-09,586000000.0,72.0,15
221.0,30.83156394956,60,0.036,7.97e-09,586000000.0,72.0,15
222.0,30.870472908,60,0.036,7.97e-09,586000000.0,72.0,15
223.0,30.90938186644,60,0.036,7.97e-09,586000000.0,72.0,15
224.0,30.94829082488,60,0.036,7.97e-09,586000000.0,72.0,15
225.0,30.98719978332,60,0.036,7.97e-09,586000000.0,72.0,15
226.0,31.02610874176,60,0.036,7.97e-09,586000000.0,72.0,15
227.0,31.0650177002,60,0.036,7.97e-09,586000000.0,72.0,15
228.0,31.10341186524,60,0.036,7.97e-09,586000000.0,72.0,15
229.0,31.14180603028,60,0.036,7.97e-09,586000000.0,72.0,15
230.0,31.18020019532,60,0.036,7.97e-09,586000000.0,72.0,15
231.0,31.21859436036,60,0.036,7.97e-09,586000000.0,72.0,15
232.0,31.2569885254,60,0.036,7.97e-09,586000000.0,72.0,15
233.0,31.29538269044,60,0.036,7.97e-09,586000000.0,72.0,15
234.0,31.33377685548,60,0.036,7.97e-09,586000000.0,72.0,15
235.0,31.37217102052,60,0.036,7.97e-09,586000000.0,72.0,15
236.0,31.41056518556,60,0.036,7.97e-09,586000000.0,72.0,15
237.0,31.4489593506,60,0.036,7.97e-09,586000000.0,72.0,15
238.0,31.48684501649,60,0.036,7.97e-09,586000000.0,72.0,15
239.0,31.52473068238,60,0.036,7.97e-09,586000000.0,72.0,15
240.0,31.56261634827,60,0.036,7.97e-09,586000000.0,72.0,15
241.0,31.60050201416,60,0.036,7.97e-09,586000000.0,72.0,15
242.0,31.63838768005,60,0.036,7.97e-09,586000000.0,72.0,15
243.0,31.67627334594,60,0.036,7.97e-09,586000000.0,72.0,15
244.0,31.71415901183,60,0.036,7.97e-09,586000000.0,72.0,15
245.0,31.75204467772,60,0.036,7.97e-09,586000000.0,72.0,15
246.0,31.78993034361,60,0.036,7.97e-09,586000000.0,72.0,15
247.0,31.8278160095,60,0.036,7.97e-09,586000000.0,72.0,15
248.0,31.86520004271,60,0.036,7.97e-09,586000000.0,72.0,15
249.0,31.90258407592,60,0.036,7.97e-09,586000000.0,72.0,15
250.0,31.93996810913,60,0.036,7.97e-09,586000000.0,72.0,15
251.0,31.97735214234,60,0.036,7.97e-09,586000000.0,72.0,15
252.0,32.01473617555,60,0.036,7.97e-09,586000000.0,72.0,15
253.0,32.05212020876,60,0.036,7.97e-09,586000000.0,72.0,15
254.0,32.08950424197,60,0.036,7.97e-09,586000000.0,72.0,15
255.0,32.12688827518,60,0.036,7.97e-09,586000000.0,72.0,15
256.0,32.16427230839,60,0.036,7.97e-09,586000000.0,72.0,15
257.0,32.2016563416,60,0.036,7.97e-09,586000000.0,72.0,15
258.0,32.23854484562,60,0.036,7.97e-09,586000000.0,72.0,15
259.0,32.27543334964,60,0.036,7.97e-09,586000000.0,72.0,15
260.0,32.31232185366,60,0.036,7.97e-09,586000000.0,72.0,15
261.0,32.34921035768,60,0.036,7.97e-09,586000000.0,72.0,15
262.0,32.3860988617,60,0.036,7.97e-09,586000000.0,72.0,15
263.0,32.42298736572,60,0.036,7.97e-09,586000000.0,72.0,15
264.0,32.45987586974,60,0.036,7.97e-09,586000000.0,72.0,15
265.0,32.49676437376,60,0.036,7.97e-09,586000000.0,72.0,15
266.0,32.53365287778,60,0.036,7.97e-09,586000000.0,72.0,15
267.0,32.5705413818,60,0.036,7.97e-09,586000000.0,72.0,15
268.0,32.60694122311,60,0.036,7.97e-09,586000000.0,72.0,15
269.0,32.64334106442,60,0.036,7.97e-09,586000000.0,72.0,15
270.0,32.67974090573,60,0.036,7.97e-09,586000000.0,72.0,15
271.0,32.71614074704,60,0.036,7.97e-09,586000000.0,72.0,15
272.0,32.75254058835,60,0.036,7.97e-09,586000000.0,72.0,15
273.0,32.78894042966,60,0.036,7.97e-09,586000000.0,72.0,15
274.0,32.82534027097,60,0.036,7.97e-09,586000000.0,72.0,15
275.0,32.86174011228,60,0.036,7.97e-09,586000000.0,72.0,15
276.0,32.89813995359,60,0.036,7.97e-09,586000000.0,72.0,15
277.0,32.9345397949,60,0.036,7.97e-09,586000000.0,72.0,15
278.0,32.97045669554,60,0.036,7.97e-09,586000000.0,72.0,15
279.0,33.00637359618,60,0.036,7.97e-09,586000000.0,72.0,15
280.0,33.04229049682,60,0.036,7.97e-09,586000000.0,72.0,15
281.0,33.07820739746,60,0.036,7.97e-09,586000000.0,72.0,15
282.0,33.1141242981,60,0.036,7.97e-09,586000000.0,72.0,15
283.0,33.15004119874,60,0.036,7.97e-09,586000000.0,72.0,15
284.0,33.18595809938,60,0.036,7.97e-09,586000000.0,72.0,15
285.0,33.22187500002,60,0.036,7.97e-09,586000000.0,72.0,15
286.0,33.25779190066,60,0.036,7.97e-09,586000000.0,72.0,15
287.0,33.2937088013,60,0.036,7.97e-09,586000000.0,72.0,15
288.0,33.32914924624,60,0.036,7.97e-09,586000000.0,72.0,15
289.0,33.36458969118,60,0.036,7.97e-09,586000000.0,72.0,15
290.0,33.40003013612,60,0.036,7.97e-09,586000000.0,72.0,15
291.0,33.43547058106,60,0.036,7.97e-09,586000000.0,72.0,15
292.0,33.470911026,60,0.036,7.97e-09,586000000.0,72.0,15
293.0,33.50635147094,60,0.036,7.97e-09,586000000.0,72.0,15
294.0,33.54179191588,60,0.036,7.97e-09,586000000.0,72.0,15
295.0,33.57723236082,60,0.036,7.97e-09,586000000.0,72.0,15
296.0,33.61267280576,60,0.036,7.97e-09,586000000.0,72.0,15
297.0,33.6481132507,60,0.036,7.97e-09,586000000.0,72.0,15
298.0,33.68308372495,60,0.036,7.97e-09,586000000.0,72.0,15
299.0,33.7180541992,60,0.036,7.97e-09,586000000.0,72.0,15
300.0,33.75302467345,60,0.036,7.97e-09,586000000.0,72.0,15
301.0,33.7879951477,60,0.036,7.97e-09,586000000.0,72.0,15
302.0,33.82296562195,60,0.036,7.97e-09,586000000.0,72.0,15
303.0,33.8579360962,60,0.036,7.97e-09,586000000.0,72.0,15
304.0,33.89290657045,60,0.036,7.97e-09,586000000.0,72.0,15
305.0,33.9278770447,60,0.036,7.97e-09,586000000.0,72.0,15
306.0,33.96284751895,60,0.036,7.97e-09,586000000.0,72.0,15
307.0,33.9978179932,60,0.036,7.97e-09,586000000.0,72.0,15
308.0,34.03232460025,60,0.036,7.97e-09,586000000.0,72.0,15
309.0,34.0668312073,60,0.036,7.97e-09,586000000.0,72.0,15
310.0,34.10133781435,60,0.036,7.97e-09,586000000.0,72.0,15
311.0,34.1358444214,60,0.036,7.97e-09,586000000.0,72.0,15
312.0,34.17035102845,60,0.036,7.97e-09,586000000.0,72.0,15
313.0,34.2048576355,60,0.036,7.97e-09,586000000.0,72.0,15
314.0,34.23936424255,60,0.036,7.97e-09,586000000.0,72.0,15
315.0,34.2738708496,60,0.036,7.97e-09,586000000.0,72.0,15
316.0,34.30837745665,60,0.036,7.97e-09,586000000.0,72.0,15
317.0,34.3428840637,60,0.036,7.97e-09,586000000.0,72.0,15
318.0,34.37693290709,60,0.036,7.97e-09,586000000.0,72.0,15
319.0,34.41098175048,60,0.036,7.97e-09,586000000.0,72.0,15
320.0,34.44503059387,60,0.036,7.97e-09,586000000.0,72.0,15
321.0,34.47907943726,60,0.036,7.97e-09,586000000.0,72.0,15
322.0,34.51312828065,60,0.036,7.97e-09,586000000.0,72.0,15
323.0,34.54717712404,60,0.036,7.97e-09,586000000.0,72.0,15
324.0,34.58122596743,60,0.036,7.97e-09,586000000.0,72.0,15
325.0,34.61527481082,60,0.036,7.97e-09,586000000.0,72.0,15
326.0,34.64932365421,60,0.036,7.97e-09,586000000.0,72.0,15
327.0,34.6833724976,60,0.036,7.97e-09,586000000.0,72.0,15
328.0,34.71696968082,60,0.036,7.97e-09,586000000.0,72.0,15
329.0,34.75056686404,60,0.036,7.97e-09,586000000.0,72.0,15
330.0,34.78416404726,60,0.036,7.97e-09,586000000.0,72.0,15
331.0,34.81776123048,60,0.036,7.97e-09,586000000.0,72.0,15
332.0,34.8513584137,60,0.036,7.97e-09,586000000.0,72.0,15
333.0,34.88495559692,60,0.036,7.97e-09,586000000.0,72.0,15
334.0,34.91855278014,60,0.036,7.97e-09,586000000.0,72.0,15
335.0,34.95214996336,60,0.036,7.97e-09,586000000.0,72.0,15
336.0,34.98574714658,60,0.036,7.97e-09,586000000.0,72.0,15
