time,T_int,T_ext_1,Film_Coef,Density,Specific_Heat,Thermal_Conductivity,Radius
1.0,21.9314899445,22.88,0.036,7.87e-09,286000000.0,112.0,15
2.0,21.8776321411,23.76,0.036,7.87e-09,286000000.0,112.0,15
3.0,21.8326911926,24.64,0.036,7.87e-09,286000000.0,112.0,15
4.0,21.7982969284,25.52,0.036,7.87e-09,286000000.0,112.0,15
5.0,21.7639026642,26.4,0.036,7.87e-09,286000000.0,112.0,15
6.0,21.744103431725,27.28,0.036,7.87e-09,286000000.0,112.0,15
7.0,21.72430419925,28.16,0.036,7.87e-09,286000000.0,112.0,15
8.0,21.704504966775,29.04,0.036,7.87e-09,286000000.0,112.0,15
9.0,21.6847057343,29.92,0.036,7.87e-09,286000000.0,112.0,15
10.0,21.6894822121125,30.8,0.036,7.87e-09,286000000.0,112.0,15
11.0,21.694258689925,31.68,0.036,7.87e-09,286000000.0,112.0,15
12.0,21.6990351677375,32.56,0.036,7.87e-09,286000000.0,112.0,15
13.0,21.70381164555,33.44,0.036,7.87e-09,286000000.0,112.0,15
14.0,21.7085881233625,34.32,0.036,7.87e-09,286000000.0,112.0,15
15.0,21.713364601175,35.2,0.036,7.87e-09,286000000.0,112.0,15
16.0,21.7181410789875,36.08,0.036,7.87e-09,286000000.0,112.0,15
17.0,21.7229175568,36.96,0.036,7.87e-09,286000000.0,112.0,15
18.0,21.75675621036,37.84,0.036,7.87e-09,286000000.0,112.0,15
19.0,21.79059486392,38.72,0.036,7.87e-09,286000000.0,112.0,15
20.0,21.82443351748,39.6,0.036,7.87e-09,286000000.0,112.0,15
21.0,21.85827217104,40.48,0.036,7.87e-09,286000000.0,112.0,15
22.0,21.8921108246,41.36,0.036,7.87e-09,286000000.0,112.0,15
23.0,21.92594947816,42.24,0.036,7.87e-09,286000000.0,112.0,15
24.0,21.95978813172,43.12,0.036,7.87e-09,286000000.0,112.0,15
25.0,21.99362678528,44.0,0.036,7.87e-09,286000000.0,112.0,15
26.0,22.02746543884,44.88,0.036,7.87e-09,286000000.0,112.0,15
27.0,22.0613040924,45.76,0.036,7.87e-09,286000000.0,112.0,15
28.0,22.12348041534,46.64,0.036,7.87e-09,286000000.0,112.0,15
29.0,22.18565673828,47.52,0.036,7.87e-09,286000000.0,112.0,15
30.0,22.24783306122,48.4,0.036,7.87e-09,286000000.0,112.0,15
31.0,22.31000938416,49.28,0.036,7.87e-09,286000000.0,112.0,15
32.0,22.3721857071,50.16,0.036,7.87e-09,286000000.0,112.0,15
33.0,22.43436203004,51.04,0.036,7.87e-09,286000000.0,112.0,15
34.0,22.49653835298,51.92,0.036,7.87e-09,286000000.0,112.0,15
35.0,22.55871467592,52.8,0.036,7.87e-09,286000000.0,112.0,15
36.0,22.62089099886,53.68,0.036,7.87e-09,286000000.0,112.0,15
37.0,22.6830673218,54.56,0.036,7.87e-09,286000000.0,112.0,15
38.0,22.77300853731,55.44,0.036,7.87e-09,286000000.0,112.0,15
39.0,22.86294975282,56.32,0.036,7.87e-09,286000000.0,112.0,15
40.0,22.95289096833,57.2,0.036,7.87e-09,286000000.0,112.0,15
41.0,23.04283218384,58.08,0.036,7.87e-09,286000000.0,112.0,15
42.0,23.13277339935,58.96,0.036,7.87e-09,286000000.0,112.0,15
43.0,23.22271461486,59.84,0.036,7.87e-09,286000000.0,112.0,15
44.0,23.31265583037,60.72,0.036,7.87e-09,286000000.0,112.0,15
45.0,23.40259704588,61.6,0.036,7.87e-09,286000000.0,112.0,15
46.0,23.49253826139,62.48,0.036,7.87e-09,286000000.0,112.0,15
47.0,23.5824794769,63.36,0.036,7.87e-09,286000000.0,112.0,15
48.0,23.67526283262,64.24,0.036,7.87e-09,286000000.0,112.0,15
49.0,23.76804618834,65.12,0.036,7.87e-09,286000000.0,112.0,15
50.0,23.86082954406,66.0,0.036,7.87e-09,286000000.0,112.0,15
51.0,23.95361289978,62.94,0.036,7.87e-09,286000000.0,112.0,15
52.0,24.0463962555,62.88,0.036,7.87e-09,286000000.0,112.0,15
53.0,24.13917961122,62.82,0.036,7.87e-09,286000000.0,112.0,15
54.0,24.23196296694,62.76,0.036,7.87e-09,286000000.0,112.0,15
55.0,24.32474632266,62.7,0.036,7.87e-09,286000000.0,112.0,15
56.0,24.41752967838,62.64,0.036,7.87e-09,286000000.0,112.0,15
57.0,24.5103130341,62.58,0.036,7.87e-09,286000000.0,112.0,15
58.0,24.59734535221,62.52,0.036,7.87e-09,286000000.0,112.0,15
59.0,24.68437767032,62.46,0.036,7.87e-09,286000000.0,112.0,15
60.0,24.77140998843,62.4,0.036,7.87e-09,286000000.0,112.0,15
61.0,24.85844230654,62.34,0.036,7.87e-09,286000000.0,112.0,15
62.0,24.94547462465,62.28,0.036,7.87e-09,286000000.0,112.0,15
63.0,25.03250694276,62.22,0.036,7.87e-09,286000000.0,112.0,15
64.0,25.11953926087,62.16,0.036,7.87e-09,286000000.0,112.0,15
65.0,25.20657157898,62.1,0.036,7.87e-09,286000000.0,112.0,15
66.0,25.29360389709,62.04,0.036,7.87e-09,286000000.0,112.0,15
67.0,25.3806362152,61.98,0.036,7.87e-09,286000000.0,112.0,15
68.0,25.46307106017,61.92,0.036,7.87e-09,286000000.0,112.0,15
69.0,25.54550590514,61.86,0.036,7.87e-09,286000000.0,112.0,15
70.0,25.62794075011,61.8,0.036,7.87e-09,286000000.0,112.0,15
71.0,25.71037559508,61.74,0.036,7.87e-09,286000000.0,112.0,15
72.0,25.79281044005,61.68,0.036,7.87e-09,286000000.0,112.0,15
73.0,25.87524528502,61.62,0.036,7.87e-09,286000000.0,112.0,15
74.0,25.95768012999,61.56,0.036,7.87e-09,286000000.0,112.0,15
75.0,26.04011497496,61.5,0.036,7.87e-09,286000000.0,112.0,15
76.0,26.12254981993,61.44,0.036,7.87e-09,286000000.0,112.0,15
77.0,26.2049846649,61.38,0.036,7.87e-09,286000000.0,112.0,15
78.0,26.28301715849,61.32,0.036,7.87e-09,286000000.0,112.0,15
79.0,26.36104965208,61.26,0.036,7.87e-09,286000000.0,112.0,15
80.0,26.43908214567,61.2,0.036,7.87e-09,286000000.0,112.0,15
81.0,26.51711463926,61.14,0.036,7.87e-09,286000000.0,112.0,15
82.0,26.59514713285,61.08,0.036,7.87e-09,286000000.0,112.0,15
83.0,26.67317962644,61.02,0.036,7.87e-09,286000000.0,112.0,15
84.0,26.75121212003,60.96,0.036,7.87e-09,286000000.0,112.0,15
85.0,26.82924461362,60.9,0.036,7.87e-09,286000000.0,112.0,15
86.0,26.90727710721,60.84,0.036,7.87e-09,286000000.0,112.0,15
87.0,26.9853096008,60.78,0.036,7.87e-09,286000000.0,112.0,15
88.0,27.05901584623,60.72,0.036,7.87e-09,286000000.0,112.0,15
89.0,27.13272209166,60.66,0.036,7.87e-09,286000000.0,112.0,15
90.0,27.20642833709,60.6,0.036,7.87e-09,286000000.0,112.0,15
91.0,27.28013458252,60.54,0.036,7.87e-09,286000000.0,112.0,15
92.0,27.35384082795,60.48,0.036,7.87e-09,286000000.0,112.0,15
93.0,27.42754707338,60.42,0.036,7.87e-09,286000000.0,112.0,15
94.0,27.50125331881,60.36,0.036,7.87e-09,286000000.0,112.0,15
95.0,27.57495956424,60.3,0.036,7.87e-09,286000000.0,112.0,15
96.0,27.64866580967,60.24,0.036,7.87e-09,286000000.0,112.0,15
97.0,27.7223720551,60.18,0.036,7.87e-09,286000000.0,112.0,15
98.0,27.7938526154,60.12,0.036,7.87e-09,286000000.0,112.0,15
99.0,27.8653331757,60.06,0.036,7.87e-09,286000000.0,112.0,15
100.0,27.936813736,60.0,0.036,7.87e-09,286000000.0,112.0,15
101.0,28.0082942963,60,0.036,7.87e-09,286000000.0,112.0,15
102.0,28.0797748566,60,0.036,7.87e-09,286000000.0,112.0,15
103.0,28.1512554169,60,0.036,7.87e-09,286000000.0,112.0,15
104.0,28.2227359772,60,0.036,7.87e-09,286000000.0,112.0,15
105.0,28.2942165375,60,0.036,7.87e-09,286000000.0,112.0,15
106.0,28.3656970978,60,0.036,7.87e-09,286000000.0,112.0,15
107.0,28.4371776581,60,0.036,7.87e-09,286000000.0,112.0,15
108.0,28.50717811586,60,0.036,7.87e-09,286000000.0,112.0,15
109.0,28.57717857362,60,0.036,7.87e-09,286000000.0,112.0,15
110.0,28.64717903138,60,0.036,7.87e-09,286000000.0,112.0,15
111.0,28.71717948914,60,0.036,7.87e-09,286000000.0,112.0,15
112.0,28.7871799469,60,0.036,7.87e-09,286000000.0,112.0,15
113.0,28.85718040466,60,0.036,7.87e-09,286000000.0,112.0,15
114.0,28.92718086242,60,0.036,7.87e-09,286000000.0,112.0,15
115.0,28.99718132018,60,0.036,7.87e-09,286000000.0,112.0,15
116.0,29.06718177794,60,0.036,7.87e-09,286000000.0,112.0,15
117.0,29.1371822357,60,0.036,7.87e-09,286000000.0,112.0,15
118.0,29.2056411743,60,0.036,7.87e-09,286000000.0,112.0,15
119.0,29.2741001129,60,0.036,7.87e-09,286000000.0,112.0,15
120.0,29.3425590515,60,0.036,7.87e-09,286000000.0,112.0,15
121.0,29.4110179901,60,0.036,7.87e-09,286000000.0,112.0,15
122.0,29.4794769287,60,0.036,7.87e-09,286000000.0,112.0,15
123.0,29.5479358673,60,0.036,7.87e-09,286000000.0,112.0,15
124.0,29.6163948059,60,0.036,7.87e-09,286000000.0,112.0,15
125.0,29.6848537445,60,0.036,7.87e-09,286000000.0,112.0,15
126.0,29.7533126831,60,0.036,7.87e-09,286000000.0,112.0,15
127.0,29.8217716217,60,0.036,7.87e-09,286000000.0,112.0,15
128.0,29.88871097564,60,0.036,7.87e-09,286000000.0,112.0,15
129.0,29.95565032958,60,0.036,7.87e-09,286000000.0,112.0,15
130.0,30.02258968352,60,0.036,7.87e-09,286000000.0,112.0,15
131.0,30.08952903746,60,0.036,7.87e-09,286000000.0,112.0,15
132.0,30.1564683914,60,0.036,7.87e-09,286000000.0,112.0,15
133.0,30.22340774534,60,0.036,7.87e-09,286000000.0,112.0,15
134.0,30.29034709928,60,0.036,7.87e-09,286000000.0,112.0,15
135.0,30.35728645322,60,0.036,7.87e-09,286000000.0,112.0,15
136.0,30.42422580716,60,0.036,7.87e-09,286000000.0,112.0,15
137.0,30.4911651611,60,0.036,7.87e-09,286000000.0,112.0,15
138.0,30.55661754605,60,0.036,7.87e-09,286000000.0,112.0,15
139.0,30.622069931,60,0.036,7.87e-09,286000000.0,112.0,15
140.0,30.68752231595,60,0.036,7.87e-09,286000000.0,112.0,15
141.0,30.7529747009,60,0.036,7.87e-09,286000000.0,112.0,15
142.0,30.81842708585,60,0.036,7.87e-09,286000000.0,112.0,15
143.0,30.8838794708,60,0.036,7.87e-09,286000000.0,112.0,15
144.0,30.94933185575,60,0.036,7.87e-09,286000000.0,112.0,15
145.0,31.0147842407,60,0.036,7.87e-09,286000000.0,112.0,15
146.0,31.08023662565,60,0.036,7.87e-09,286000000.0,112.0,15
147.0,31.1456890106,60,0.036,7.87e-09,286000000.0,112.0,15
148.0,31.20968818663,60,0.036,7.87e-09,286000000.0,112.0,15
149.0,31.27368736266,60,0.036,7.87e-09,286000000.0,112.0,15
150.0,31.33768653869,60,0.036,7.87e-09,286000000.0,112.0,15
151.0,31.40168571472,60,0.036,7.87e-09,286000000.0,112.0,15
152.0,31.46568489075,60,0.036,7.87e-09,286000000.0,112.0,15
153.0,31.52968406678,60,0.036,7.87e-09,286000000.0,112.0,15
154.0,31.59368324281,60,0.036,7.87e-09,286000000.0,112.0,15
155.0,31.65768241884,60,0.036,7.87e-09,286000000.0,112.0,15
156.0,31.72168159487,60,0.036,7.87e-09,286000000.0,112.0,15
157.0,31.7856807709,60,0.036,7.87e-09,286000000.0,112.0,15
158.0,31.8482595444,60,0.036,7.87e-09,286000000.0,112.0,15
159.0,31.9108383179,60,0.036,7.87e-09,286000000.0,112.0,15
160.0,31.9734170914,60,0.036,7.87e-09,286000000.0,112.0,15
161.0,32.0359958649,60,0.036,7.87e-09,286000000.0,112.0,15
162.0,32.0985746384,60,0.036,7.87e-09,286000000.0,112.0,15
163.0,32.1611534119,60,0.036,7.87e-09,286000000.0,112.0,15
164.0,32.2237321854,60,0.036,7.87e-09,286000000.0,112.0,15
165.0,32.2863109589,60,0.036,7.87e-09,286000000.0,112.0,15
166.0,32.3488897324,60,0.036,7.87e-09,286000000.0,112.0,15
167.0,32.4114685059,60,0.036,7.87e-09,286000000.0,112.0,15
168.0,32.47265853885,60,0.036,7.87e-09,286000000.0,112.0,15
169.0,32.5338485718,60,0.036,7.87e-09,286000000.0,112.0,15
170.0,32.59503860475,60,0.036,7.87e-09,286000000.0,112.0,15
171.0,32.6562286377,60,0.036,7.87e-09,286000000.0,112.0,15
172.0,32.71741867065,60,0.036,7.87e-09,286000000.0,112.0,15
173.0,32.7786087036,60,0.036,7.87e-09,286000000.0,112.0,15
174.0,32.83979873655,60,0.036,7.87e-09,286000000.0,112.0,15
175.0,32.9009887695,60,0.036,7.87e-09,286000000.0,112.0,15
176.0,32.96217880245,60,0.036,7.87e-09,286000000.0,112.0,15
177.0,33.0233688354,60,0.036,7.87e-09,286000000.0,112.0,15
178.0,33.08320159908,60,0.036,7.87e-09,286000000.0,112.0,15
179.0,33.14303436276,60,0.036,7.87e-09,286000000.0,112.0,15
180.0,33.20286712644,60,0.036,7.87e-09,286000000.0,112.0,15
181.0,33.26269989012,60,0.036,7.87e-09,286000000.0,112.0,15
182.0,33.3225326538,60,0.036,7.87e-09,286000000.0,112.0,15
183.0,33.38236541748,60,0.036,7.87e-09,286000000.0,112.0,15
184.0,33.44219818116,60,0.036,7.87e-09,286000000.0,112.0,15
185.0,33.50203094484,60,0.036,7.87e-09,286000000.0,112.0,15
186.0,33.56186370852,60,0.036,7.87e-09,286000000.0,112.0,15
187.0,33.6216964722,60,0.036,7.87e-09,286000000.0,112.0,15
188.0,33.68020210269,60,0.036,7.87e-09,286000000.0,112.0,15
189.0,33.73870773318,60,0.036,7.87e-09,286000000.0,112.0,15
190.0,33.79721336367,60,0.036,7.87e-09,286000000.0,112.0,15
191.0,33.85571899416,60,0.036,7.87e-09,286000000.0,112.0,15
192.0,33.91422462465,60,0.036,7.87e-09,286000000.0,112.0,15
193.0,33.97273025514,60,0.036,7.87e-09,286000000.0,112.0,15
194.0,34.03123588563,60,0.036,7.87e-09,286000000.0,112.0,15
195.0,34.08974151612,60,0.036,7.87e-09,286000000.0,112.0,15
196.0,34.14824714661,60,0.036,7.87e-09,286000000.0,112.0,15
197.0,34.2067527771,60,0.036,7.87e-09,286000000.0,112.0,15
198.0,34.26396026611,60,0.036,7.87e-09,286000000.0,112.0,15
199.0,34.32116775512,60,0.036,7.87e-09,286000000.0,112.0,15
200.0,34.37837524413,60,0.036,7.87e-09,286000000.0,112.0,15
201.0,34.43558273314,60,0.036,7.87e-09,286000000.0,112.0,15
202.0,34.49279022215,60,0.036,7.87e-09,286000000.0,112.0,15
203.0,34.54999771116,60,0.036,7.87e-09,286000000.0,112.0,15
204.0,34.60720520017,60,0.036,7.87e-09,286000000.0,112.0,15
205.0,34.66441268918,60,0.036,7.87e-09,286000000.0,112.0,15
206.0,34.72162017819,60,0.036,7.87e-09,286000000.0,112.0,15
207.0,34.7788276672,60,0.036,7.87e-09,286000000.0,112.0,15
208.0,34.83476676938,60,0.036,7.87e-09,286000000.0,112.0,15
209.0,34.89070587156,60,0.036,7.87e-09,286000000.0,112.0,15
210.0,34.94664497374,60,0.036,7.87e-09,286000000.0,112.0,15
211.0,35.00258407592,60,0.036,7.87e-09,286000000.0,112.0,15
212.0,35.0585231781,60,0.036,7.87e-09,286000000.0,112.0,15
213.0,35.11446228028,60,0.036,7.87e-09,286000000.0,112.0,15
214.0,35.17040138246,60,0.036,7.87e-09,286000000.0,112.0,15
215.0,35.22634048464,60,0.036,7.87e-09,286000000.0,112.0,15
216.0,35.28227958682,60,0.036,7.87e-09,286000000.0,112.0,15
217.0,35.338218689,60,0.036,7.87e-09,286000000.0,112.0,15
218.0,35.39291687015,60,0.036,7.87e-09,286000000.0,112.0,15
219.0,35.4476150513,60,0.036,7.87e-09,286000000.0,112.0,15
220.0,35.50231323245,60,0.036,7.87e-09,286000000.0,112.0,15
221.0,35.5570114136,60,0.036,7.87e-09,286000000.0,112.0,15
222.0,35.61170959475,60,0.036,7.87e-09,286000000.0,112.0,15
223.0,35.6664077759,60,0.036,7.87e-09,286000000.0,112.0,15
224.0,35.72110595705,60,0.036,7.87e-09,286000000.0,112.0,15
225.0,35.7758041382,60,0.036,7.87e-09,286000000.0,112.0,15
226.0,35.83050231935,60,0.036,7.87e-09,286000000.0,112.0,15
227.0,35.8852005005,60,0.036,7.87e-09,286000000.0,112.0,15
228.0,35.93868560792,60,0.036,7.87e-09,286000000.0,112.0,15
229.0,35.99217071534,60,0.036,7.87e-09,286000000.0,112.0,15
230.0,36.04565582276,60,0.036,7.87e-09,286000000.0,112.0,15
231.0,36.09914093018,60,0.036,7.87e-09,286000000.0,112.0,15
232.0,36.1526260376,60,0.036,7.87e-09,286000000.0,112.0,15
233.0,36.20611114502,60,0.036,7.87e-09,286000000.0,112.0,15
234.0,36.25959625244,60,0.036,7.87e-09,286000000.0,112.0,15
235.0,36.31308135986,60,0.036,7.87e-09,286000000.0,112.0,15
236.0,36.36656646728,60,0.036,7.87e-09,286000000.0,112.0,15
237.0,36.4200515747,60,0.036,7.87e-09,286000000.0,112.0,15
238.0,36.47235031127,60,0.036,7.87e-09,286000000.0,112.0,15
239.0,36.52464904784,60,0.036,7.87e-09,286000000.0,112.0,15
240.0,36.57694778441,60,0.036,7.87e-09,286000000.0,112.0,15
241.0,36.62924652098,60,0.036,7.87e-09,286000000.0,112.0,15
242.0,36.68154525755,60,0.036,7.87e-09,286000000.0,112.0,15
243.0,36.73384399412,60,0.036,7.87e-09,286000000.0,112.0,15
244.0,36.78614273069,60,0.036,7.87e-09,286000000.0,112.0,15
245.0,36.83844146726,60,0.036,7.87e-09,286000000.0,112.0,15
246.0,36.89074020383,60,0.036,7.87e-09,286000000.0,112.0,15
247.0,36.9430389404,60,0.036,7.87e-09,286000000.0,112.0,15
248.0,36.99417762754,60,0.036,7.87e-09,286000000.0,112.0,15
249.0,37.04531631468,60,0.036,7.87e-09,286000000.0,112.0,15
250.0,37.09645500182,60,0.036,7.87e-09,286000000.0,112.0,15
251.0,37.14759368896,60,0.036,7.87e-09,286000000.0,112.0,15
252.0,37.1987323761,60,0.036,7.87e-09,286000000.0,112.0,15
253.0,37.24987106324,60,0.036,7.87e-09,286000000.0,112.0,15
254.0,37.30100975038,60,0.036,7.87e-09,286000000.0,112.0,15
255.0,37.35214843752,60,0.036,7.87e-09,286000000.0,112.0,15
256.0,37.40328712466,60,0.036,7.87e-09,286000000.0,112.0,15
257.0,37.4544258118,60,0.036,7.87e-09,286000000.0,112.0,15
258.0,37.50443038943,60,0.036,7.87e-09,286000000.0,112.0,15
259.0,37.55443496706,60,0.036,7.87e-09,286000000.0,112.0,15
260.0,37.60443954469,60,0.036,7.87e-09,286000000.0,112.0,15
261.0,37.65444412232,60,0.036,7.87e-09,286000000.0,112.0,15
262.0,37.70444869995,60,0.036,7.87e-09,286000000.0,112.0,15
263.0,37.75445327758,60,0.036,7.87e-09,286000000.0,112.0,15
264.0,37.80445785521,60,0.036,7.87e-09,286000000.0,112.0,15
265.0,37.85446243284,60,0.036,7.87e-09,286000000.0,112.0,15
266.0,37.90446701047,60,0.036,7.87e-09,286000000.0,112.0,15
267.0,37.9544715881,60,0.036,7.87e-09,286000000.0,112.0,15
268.0,38.00336723325,60,0.036,7.87e-09,286000000.0,112.0,15
269.0,38.0522628784,60,0.036,7.87e-09,286000000.0,112.0,15
270.0,38.10115852355,60,0.036,7.87e-09,286000000.0,112.0,15
271.0,38.1500541687,60,0.036,7.87e-09,286000000.0,112.0,15
272.0,38.19894981385,60,0.036,7.87e-09,286000000.0,112.0,15
273.0,38.247845459,60,0.036,7.87e-09,286000000.0,112.0,15
274.0,38.29674110415,60,0.036,7.87e-09,286000000.0,112.0,15
275.0,38.3456367493,60,0.036,7.87e-09,286000000.0,112.0,15
276.0,38.39453239445,60,0.036,7.87e-09,286000000.0,112.0,15
277.0,38.4434280396,60,0.036,7.87e-09,286000000.0,112.0,15
278.0,38.4912391663,60,0.036,7.87e-09,286000000.0,112.0,15
279.0,38.539050293,60,0.036,7.87e-09,286000000.0,112.0,15
280.0,38.5868614197,60,0.036,7.87e-09,286000000.0,112.0,15
281.0,38.6346725464,60,0.036,7.87e-09,286000000.0,112.0,15
282.0,38.6824836731,60,0.036,7.87e-09,286000000.0,112.0,15
283.0,38.7302947998,60,0.036,7.87e-09,286000000.0,112.0,15
284.0,38.7781059265,60,0.036,7.87e-09,286000000.0,112.0,15
285.0,38.8259170532,60,0.036,7.87e-09,286000000.0,112.0,15
286.0,38.8737281799,60,0.036,7.87e-09,286000000.0,112.0,15
287.0,38.9215393066,60,0.036,7.87e-09,286000000.0,112.0,15
288.0,38.96828994747,60,0.036,7.87e-09,286000000.0,112.0,15
289.0,39.01504058834,60,0.036,7.87e-09,286000000.0,112.0,15
290.0,39.06179122921,60,0.036,7.87e-09,286000000.0,112.0,15
291.0,39.10854187008,60,0.036,7.87e-09,286000000.0,112.0,15
292.0,39.15529251095,60,0.036,7.87e-09,286000000.0,112.0,15
293.0,39.20204315182,60,0.036,7.87e-09,286000000.0,112.0,15
294.0,39.24879379269,60,0.036,7.87e-09,286000000.0,112.0,15
295.0,39.29554443356,60,0.036,7.87e-09,286000000.0,112.0,15
296.0,39.34229507443,60,0.036,7.87e-09,286000000.0,112.0,15
297.0,39.3890457153,60,0.036,7.87e-09,286000000.0,112.0,15
298.0,39.43475952146,60,0.036,7.87e-09,286000000.0,112.0,15
299.0,39.48047332762,60,0.036,7.87e-09,286000000.0,112.0,15
300.0,39.52618713378,60,0.036,7.87e-09,286000000.0,112.0,15
301.0,39.57190093994,60,0.036,7.87e-09,286000000.0,112.0,15
302.0,39.6176147461,60,0.036,7.87e-09,286000000.0,112.0,15
303.0,39.66332855226,60,0.036,7.87e-09,286000000.0,112.0,15
304.0,39.70904235842,60,0.036,7.87e-09,286000000.0,112.0,15
305.0,39.75475616458,60,0.036,7.87e-09,286000000.0,112.0,15
306.0,39.80046997074,60,0.036,7.87e-09,286000000.0,112.0,15
307.0,39.8461837769,60,0.036,7.87e-09,286000000.0,112.0,15
308.0,39.89088325504,60,0.036,7.87e-09,286000000.0,112.0,15
309.0,39.93558273318,60,0.036,7.87e-09,286000000.0,112.0,15
310.0,39.98028221132,60,0.036,7.87e-09,286000000.0,112.0,15
311.0,40.02498168946,60,0.036,7.87e-09,286000000.0,112.0,15
312.0,40.0696811676,60,0.036,7.87e-09,286000000.0,112.0,15
313.0,40.11438064574,60,0.036,7.87e-09,286000000.0,112.0,15
314.0,40.15908012388,60,0.036,7.87e-09,286000000.0,112.0,15
315.0,40.20377960202,60,0.036,7.87e-09,286000000.0,112.0,15
316.0,40.24847908016,60,0.036,7.87e-09,286000000.0,112.0,15
317.0,40.2931785583,60,0.036,7.87e-09,286000000.0,112.0,15
318.0,40.3368869781,60,0.036,7.87e-09,286000000.0,112.0,15
319.0,40.3805953979,60,0.036,7.87e-09,286000000.0,112.0,15
320.0,40.4243038177,60,0.036,7.87e-09,286000000.0,112.0,15
321.0,40.4680122375,60,0.036,7.87e-09,286000000.0,112.0,15
322.0,40.5117206573,60,0.036,7.87e-09,286000000.0,112.0,15
323.0,40.5554290771,60,0.036,7.87e-09,286000000.0,112.0,15
324.0,40.5991374969,60,0.036,7.87e-09,286000000.0,112.0,15
325.0,40.6428459167,60,0.036,7.87e-09,286000000.0,112.0,15
326.0,40.6865543365,60,0.036,7.87e-09,286000000.0,112.0,15
327.0,40.7302627563,60,0.036,7.87e-09,286000000.0,112.0,15
328.0,40.77300186153,60,0.036,7.87e-09,286000000.0,112.0,15
329.0,40.81574096676,60,0.036,7.87e-09,286000000.0,112.0,15
330.0,40.85848007199,60,0.036,7.87e-09,286000000.0,112.0,15
