time,T_int,T_ext_1,Film_Coef,Density,Specific_Heat,Thermal_Conductivity,Radius
1.0,21.9752407074,22.88,0.036,7.47e-09,236000000.0,132.0,25
2.0,21.9558391571,23.76,0.036,7.47e-09,236000000.0,132.0,25
3.0,21.9394187927,24.64,0.036,7.47e-09,236000000.0,132.0,25
4.0,21.92648506165,25.52,0.036,7.47e-09,236000000.0,132.0,25
5.0,21.9135513306,26.4,0.036,7.47e-09,236000000.0,132.0,25
6.0,21.905725002325,27.28,0.036,7.47e-09,236000000.0,132.0,25
7.0,21.89789867405,28.16,0.036,7.47e-09,236000000.0,132.0,25
8.0,21.890072345775,29.04,0.036,7.47e-09,236000000.0,132.0,25
9.0,21.8822460175,29.92,0.036,7.47e-09,236000000.0,132.0,25
10.0,21.8835773468375,30.8,0.036,7.47e-09,236000000.0,132.0,25
11.0,21.884908676175,31.68,0.036,7.47e-09,236000000.0,132.0,25
12.0,21.8862400055125,32.56,0.036,7.47e-09,236000000.0,132.0,25
13.0,21.88757133485,33.44,0.036,7.47e-09,236000000.0,132.0,25
14.0,21.8889026641875,34.32,0.036,7.47e-09,236000000.0,132.0,25
15.0,21.890233993525,35.2,0.036,7.47e-09,236000000.0,132.0,25
16.0,21.8915653228625,36.08,0.036,7.47e-09,236000000.0,132.0,25
17.0,21.8928966522,36.96,0.036,7.47e-09,236000000.0,132.0,25
18.0,21.90543708799,37.84,0.036,7.47e-09,236000000.0,132.0,25
19.0,21.91797752378,38.72,0.036,7.47e-09,236000000.0,132.0,25
20.0,21.93051795957,39.6,0.036,7.47e-09,236000000.0,132.0,25
21.0,21.94305839536,40.48,0.036,7.47e-09,236000000.0,132.0,25
22.0,21.95559883115,41.36,0.036,7.47e-09,236000000.0,132.0,25
23.0,21.96813926694,42.24,0.036,7.47e-09,236000000.0,132.0,25
24.0,21.98067970273,43.12,0.036,7.47e-09,236000000.0,132.0,25
25.0,21.99322013852,44.0,0.036,7.47e-09,236000000.0,132.0,25
26.0,22.00576057431,44.88,0.036,7.47e-09,236000000.0,132.0,25
27.0,22.0183010101,45.76,0.036,7.47e-09,236000000.0,132.0,25
28.0,22.04197788236,46.64,0.036,7.47e-09,236000000.0,132.0,25
29.0,22.06565475462,47.52,0.036,7.47e-09,236000000.0,132.0,25
30.0,22.08933162688,48.4,0.036,7.47e-09,236000000.0,132.0,25
31.0,22.11300849914,49.28,0.036,7.47e-09,236000000.0,132.0,25
32.0,22.1366853714,50.16,0.036,7.47e-09,236000000.0,132.0,25
33.0,22.16036224366,51.04,0.036,7.47e-09,236000000.0,132.0,25
34.0,22.18403911592,51.92,0.036,7.47e-09,236000000.0,132.0,25
35.0,22.20771598818,52.8,0.036,7.47e-09,236000000.0,132.0,25
36.0,22.23139286044,53.68,0.036,7.47e-09,236000000.0,132.0,25
37.0,22.2550697327,54.56,0.036,7.47e-09,236000000.0,132.0,25
38.0,22.28981399539,55.44,0.036,7.47e-09,236000000.0,132.0,25
39.0,22.32455825808,56.32,0.036,7.47e-09,236000000.0,132.0,25
40.0,22.35930252077,57.2,0.036,7.47e-09,236000000.0,132.0,25
41.0,22.39404678346,58.08,0.036,7.47e-09,236000000.0,132.0,25
42.0,22.42879104615,58.96,0.036,7.47e-09,236000000.0,132.0,25
43.0,22.46353530884,59.84,0.036,7.47e-09,236000000.0,132.0,25
44.0,22.49827957153,60.72,0.036,7.47e-09,236000000.0,132.0,25
45.0,22.53302383422,61.6,0.036,7.47e-09,236000000.0,132.0,25
46.0,22.56776809691,62.48,0.036,7.47e-09,236000000.0,132.0,25
47.0,22.6025123596,63.36,0.036,7.47e-09,236000000.0,132.0,25
48.0,22.63906555174,64.24,0.036,7.47e-09,236000000.0,132.0,25
49.0,22.67561874388,65.12,0.036,7.47e-09,236000000.0,132.0,25
50.0,22.71217193602,66.0,0.036,7.47e-09,236000000.0,132.0,25
51.0,22.74872512816,62.94,0.036,7.47e-09,236000000.0,132.0,25
52.0,22.7852783203,62.88,0.036,7.47e-09,236000000.0,132.0,25
53.0,22.82183151244,62.82,0.036,7.47e-09,236000000.0,132.0,25
54.0,22.85838470458,62.76,0.036,7.47e-09,236000000.0,132.0,25
55.0,22.89493789672,62.7,0.036,7.47e-09,236000000.0,132.0,25
56.0,22.93149108886,62.64,0.036,7.47e-09,236000000.0,132.0,25
57.0,22.968044281,62.58,0.036,7.47e-09,236000000.0,132.0,25
58.0,23.00300502777,62.52,0.036,7.47e-09,236000000.0,132.0,25
59.0,23.03796577454,62.46,0.036,7.47e-09,236000000.0,132.0,25
60.0,23.07292652131,62.4,0.036,7.47e-09,236000000.0,132.0,25
61.0,23.10788726808,62.34,0.036,7.47e-09,236000000.0,132.0,25
62.0,23.14284801485,62.28,0.036,7.47e-09,236000000.0,132.0,25
63.0,23.17780876162,62.22,0.036,7.47e-09,236000000.0,132.0,25
64.0,23.21276950839,62.16,0.036,7.47e-09,236000000.0,132.0,25
65.0,23.24773025516,62.1,0.036,7.47e-09,236000000.0,132.0,25
66.0,23.28269100193,62.04,0.036,7.47e-09,236000000.0,132.0,25
67.0,23.3176517487,61.98,0.036,7.47e-09,236000000.0,132.0,25
68.0,23.35130290989,61.92,0.036,7.47e-09,236000000.0,132.0,25
69.0,23.38495407108,61.86,0.036,7.47e-09,236000000.0,132.0,25
70.0,23.41860523227,61.8,0.036,7.47e-09,236000000.0,132.0,25
71.0,23.45225639346,61.74,0.036,7.47e-09,236000000.0,132.0,25
72.0,23.48590755465,61.68,0.036,7.47e-09,236000000.0,132.0,25
73.0,23.51955871584,61.62,0.036,7.47e-09,236000000.0,132.0,25
74.0,23.55320987703,61.56,0.036,7.47e-09,236000000.0,132.0,25
75.0,23.58686103822,61.5,0.036,7.47e-09,236000000.0,132.0,25
76.0,23.62051219941,61.44,0.036,7.47e-09,236000000.0,132.0,25
77.0,23.6541633606,61.38,0.036,7.47e-09,236000000.0,132.0,25
78.0,23.6865234375,61.32,0.036,7.47e-09,236000000.0,132.0,25
79.0,23.7188835144,61.26,0.036,7.47e-09,236000000.0,132.0,25
80.0,23.7512435913,61.2,0.036,7.47e-09,236000000.0,132.0,25
81.0,23.7836036682,61.14,0.036,7.47e-09,236000000.0,132.0,25
82.0,23.8159637451,61.08,0.036,7.47e-09,236000000.0,132.0,25
83.0,23.848323822,61.02,0.036,7.47e-09,236000000.0,132.0,25
84.0,23.8806838989,60.96,0.036,7.47e-09,236000000.0,132.0,25
85.0,23.9130439758,60.9,0.036,7.47e-09,236000000.0,132.0,25
86.0,23.9454040527,60.84,0.036,7.47e-09,236000000.0,132.0,25
87.0,23.9777641296,60.78,0.036,7.47e-09,236000000.0,132.0,25
88.0,24.00883388516,60.72,0.036,7.47e-09,236000000.0,132.0,25
89.0,24.03990364072,60.66,0.036,7.47e-09,236000000.0,132.0,25
90.0,24.07097339628,60.6,0.036,7.47e-09,236000000.0,132.0,25
91.0,24.10204315184,60.54,0.036,7.47e-09,236000000.0,132.0,25
92.0,24.1331129074,60.48,0.036,7.47e-09,236000000.0,132.0,25
93.0,24.16418266296,60.42,0.036,7.47e-09,236000000.0,132.0,25
94.0,24.19525241852,60.36,0.036,7.47e-09,236000000.0,132.0,25
95.0,24.22632217408,60.3,0.036,7.47e-09,236000000.0,132.0,25
96.0,24.25739192964,60.24,0.036,7.47e-09,236000000.0,132.0,25
97.0,24.2884616852,60.18,0.036,7.47e-09,236000000.0,132.0,25
98.0,24.31901016237,60.12,0.036,7.47e-09,236000000.0,132.0,25
99.0,24.34955863954,60.06,0.036,7.47e-09,236000000.0,132.0,25
100.0,24.38010711671,60.0,0.036,7.47e-09,236000000.0,132.0,25
101.0,24.41065559388,60,0.036,7.47e-09,236000000.0,132.0,25
102.0,24.44120407105,60,0.036,7.47e-09,236000000.0,132.0,25
103.0,24.47175254822,60,0.036,7.47e-09,236000000.0,132.0,25
104.0,24.50230102539,60,0.036,7.47e-09,236000000.0,132.0,25
105.0,24.53284950256,60,0.036,7.47e-09,236000000.0,132.0,25
106.0,24.56339797973,60,0.036,7.47e-09,236000000.0,132.0,25
107.0,24.5939464569,60,0.036,7.47e-09,236000000.0,132.0,25
108.0,24.62425727843,60,0.036,7.47e-09,236000000.0,132.0,25
109.0,24.65456809996,60,0.036,7.47e-09,236000000.0,132.0,25
110.0,24.68487892149,60,0.036,7.47e-09,236000000.0,132.0,25
111.0,24.71518974302,60,0.036,7.47e-09,236000000.0,132.0,25
112.0,24.74550056455,60,0.036,7.47e-09,236000000.0,132.0,25
113.0,24.77581138608,60,0.036,7.47e-09,236000000.0,132.0,25
114.0,24.80612220761,60,0.036,7.47e-09,236000000.0,132.0,25
115.0,24.83643302914,60,0.036,7.47e-09,236000000.0,132.0,25
116.0,24.86674385067,60,0.036,7.47e-09,236000000.0,132.0,25
117.0,24.8970546722,60,0.036,7.47e-09,236000000.0,132.0,25
118.0,24.92710590359,60,0.036,7.47e-09,236000000.0,132.0,25
119.0,24.95715713498,60,0.036,7.47e-09,236000000.0,132.0,25
120.0,24.98720836637,60,0.036,7.47e-09,236000000.0,132.0,25
121.0,25.01725959776,60,0.036,7.47e-09,236000000.0,132.0,25
122.0,25.04731082915,60,0.036,7.47e-09,236000000.0,132.0,25
123.0,25.07736206054,60,0.036,7.47e-09,236000000.0,132.0,25
124.0,25.10741329193,60,0.036,7.47e-09,236000000.0,132.0,25
125.0,25.13746452332,60,0.036,7.47e-09,236000000.0,132.0,25
126.0,25.16751575471,60,0.036,7.47e-09,236000000.0,132.0,25
127.0,25.1975669861,60,0.036,7.47e-09,236000000.0,132.0,25
128.0,25.22735958101,60,0.036,7.47e-09,236000000.0,132.0,25
129.0,25.25715217592,60,0.036,7.47e-09,236000000.0,132.0,25
130.0,25.28694477083,60,0.036,7.47e-09,236000000.0,132.0,25
131.0,25.31673736574,60,0.036,7.47e-09,236000000.0,132.0,25
132.0,25.34652996065,60,0.036,7.47e-09,236000000.0,132.0,25
133.0,25.37632255556,60,0.036,7.47e-09,236000000.0,132.0,25
134.0,25.40611515047,60,0.036,7.47e-09,236000000.0,132.0,25
135.0,25.43590774538,60,0.036,7.47e-09,236000000.0,132.0,25
136.0,25.46570034029,60,0.036,7.47e-09,236000000.0,132.0,25
137.0,25.4954929352,60,0.036,7.47e-09,236000000.0,132.0,25
138.0,25.52502956392,60,0.036,7.47e-09,236000000.0,132.0,25
139.0,25.55456619264,60,0.036,7.47e-09,236000000.0,132.0,25
140.0,25.58410282136,60,0.036,7.47e-09,236000000.0,132.0,25
141.0,25.61363945008,60,0.036,7.47e-09,236000000.0,132.0,25
142.0,25.6431760788,60,0.036,7.47e-09,236000000.0,132.0,25
143.0,25.67271270752,60,0.036,7.47e-09,236000000.0,132.0,25
144.0,25.70224933624,60,0.036,7.47e-09,236000000.0,132.0,25
145.0,25.73178596496,60,0.036,7.47e-09,236000000.0,132.0,25
146.0,25.76132259368,60,0.036,7.47e-09,236000000.0,132.0,25
147.0,25.7908592224,60,0.036,7.47e-09,236000000.0,132.0,25
148.0,25.82014255523,60,0.036,7.47e-09,236000000.0,132.0,25
149.0,25.84942588806,60,0.036,7.47e-09,236000000.0,132.0,25
150.0,25.87870922089,60,0.036,7.47e-09,236000000.0,132.0,25
151.0,25.90799255372,60,0.036,7.47e-09,236000000.0,132.0,25
152.0,25.93727588655,60,0.036,7.47e-09,236000000.0,132.0,25
153.0,25.96655921938,60,0.036,7.47e-09,236000000.0,132.0,25
154.0,25.99584255221,60,0.036,7.47e-09,236000000.0,132.0,25
155.0,26.02512588504,60,0.036,7.47e-09,236000000.0,132.0,25
156.0,26.05440921787,60,0.036,7.47e-09,236000000.0,132.0,25
157.0,26.0836925507,60,0.036,7.47e-09,236000000.0,132.0,25
158.0,26.11272506718,60,0.036,7.47e-09,236000000.0,132.0,25
159.0,26.14175758366,60,0.036,7.47e-09,236000000.0,132.0,25
160.0,26.17079010014,60,0.036,7.47e-09,236000000.0,132.0,25
161.0,26.19982261662,60,0.036,7.47e-09,236000000.0,132.0,25
162.0,26.2288551331,60,0.036,7.47e-09,236000000.0,132.0,25
163.0,26.25788764958,60,0.036,7.47e-09,236000000.0,132.0,25
164.0,26.28692016606,60,0.036,7.47e-09,236000000.0,132.0,25
165.0,26.31595268254,60,0.036,7.47e-09,236000000.0,132.0,25
166.0,26.34498519902,60,0.036,7.47e-09,236000000.0,132.0,25
167.0,26.3740177155,60,0.036,7.47e-09,236000000.0,132.0,25
168.0,26.40280151371,60,0.036,7.47e-09,236000000.0,132.0,25
169.0,26.43158531192,60,0.036,7.47e-09,236000000.0,132.0,25
170.0,26.46036911013,60,0.036,7.47e-09,236000000.0,132.0,25
171.0,26.48915290834,60,0.036,7.47e-09,236000000.0,132.0,25
172.0,26.51793670655,60,0.036,7.47e-09,236000000.0,132.0,25
173.0,26.54672050476,60,0.036,7.47e-09,236000000.0,132.0,25
174.0,26.57550430297,60,0.036,7.47e-09,236000000.0,132.0,25
175.0,26.60428810118,60,0.036,7.47e-09,236000000.0,132.0,25
176.0,26.63307189939,60,0.036,7.47e-09,236000000.0,132.0,25
177.0,26.6618556976,60,0.036,7.47e-09,236000000.0,132.0,25
178.0,26.69039325711,60,0.036,7.47e-09,236000000.0,132.0,25
179.0,26.71893081662,60,0.036,7.47e-09,236000000.0,132.0,25
180.0,26.74746837613,60,0.036,7.47e-09,236000000.0,132.0,25
181.0,26.77600593564,60,0.036,7.47e-09,236000000.0,132.0,25
182.0,26.80454349515,60,0.036,7.47e-09,236000000.0,132.0,25
183.0,26.83308105466,60,0.036,7.47e-09,236000000.0,132.0,25
184.0,26.86161861417,60,0.036,7.47e-09,236000000.0,132.0,25
185.0,26.89015617368,60,0.036,7.47e-09,236000000.0,132.0,25
186.0,26.91869373319,60,0.036,7.47e-09,236000000.0,132.0,25
187.0,26.9472312927,60,0.036,7.47e-09,236000000.0,132.0,25
188.0,26.97552433012,60,0.036,7.47e-09,236000000.0,132.0,25
189.0,27.00381736754,60,0.036,7.47e-09,236000000.0,132.0,25
190.0,27.03211040496,60,0.036,7.47e-09,236000000.0,132.0,25
191.0,27.06040344238,60,0.036,7.47e-09,236000000.0,132.0,25
192.0,27.0886964798,60,0.036,7.47e-09,236000000.0,132.0,25
193.0,27.11698951722,60,0.036,7.47e-09,236000000.0,132.0,25
194.0,27.14528255464,60,0.036,7.47e-09,236000000.0,132.0,25
195.0,27.17357559206,60,0.036,7.47e-09,236000000.0,132.0,25
196.0,27.20186862948,60,0.036,7.47e-09,236000000.0,132.0,25
197.0,27.2301616669,60,0.036,7.47e-09,236000000.0,132.0,25
198.0,27.25821266177,60,0.036,7.47e-09,236000000.0,132.0,25
199.0,27.28626365664,60,0.036,7.47e-09,236000000.0,132.0,25
200.0,27.31431465151,60,0.036,7.47e-09,236000000.0,132.0,25
201.0,27.34236564638,60,0.036,7.47e-09,236000000.0,132.0,25
202.0,27.37041664125,60,0.036,7.47e-09,236000000.0,132.0,25
203.0,27.39846763612,60,0.036,7.47e-09,236000000.0,132.0,25
204.0,27.42651863099,60,0.036,7.47e-09,236000000.0,132.0,25
205.0,27.45456962586,60,0.036,7.47e-09,236000000.0,132.0,25
206.0,27.48262062073,60,0.036,7.47e-09,236000000.0,132.0,25
207.0,27.5106716156,60,0.036,7.47e-09,236000000.0,132.0,25
208.0,27.53848247528,60,0.036,7.47e-09,236000000.0,132.0,25
209.0,27.56629333496,60,0.036,7.47e-09,236000000.0,132.0,25
210.0,27.59410419464,60,0.036,7.47e-09,236000000.0,132.0,25
211.0,27.62191505432,60,0.036,7.47e-09,236000000.0,132.0,25
212.0,27.649725914,60,0.036,7.47e-09,236000000.0,132.0,25
213.0,27.67753677368,60,0.036,7.47e-09,236000000.0,132.0,25
214.0,27.70534763336,60,0.036,7.47e-09,236000000.0,132.0,25
215.0,27.73315849304,60,0.036,7.47e-09,236000000.0,132.0,25
216.0,27.76096935272,60,0.036,7.47e-09,236000000.0,132.0,25
217.0,27.7887802124,60,0.036,7.47e-09,236000000.0,132.0,25
218.0,27.81635284424,60,0.036,7.47e-09,236000000.0,132.0,25
219.0,27.84392547608,60,0.036,7.47e-09,236000000.0,132.0,25
220.0,27.87149810792,60,0.036,7.47e-09,236000000.0,132.0,25
221.0,27.89907073976,60,0.036,7.47e-09,236000000.0,132.0,25
222.0,27.9266433716,60,0.036,7.47e-09,236000000.0,132.0,25
223.0,27.95421600344,60,0.036,7.47e-09,236000000.0,132.0,25
224.0,27.98178863528,60,0.036,7.47e-09,236000000.0,132.0,25
225.0,28.00936126712,60,0.036,7.47e-09,236000000.0,132.0,25
226.0,28.03693389896,60,0.036,7.47e-09,236000000.0,132.0,25
227.0,28.0645065308,60,0.036,7.47e-09,236000000.0,132.0,25
228.0,28.09184341434,60,0.036,7.47e-09,236000000.0,132.0,25
229.0,28.11918029788,60,0.036,7.47e-09,236000000.0,132.0,25
230.0,28.14651718142,60,0.036,7.47e-09,236000000.0,132.0,25
231.0,28.17385406496,60,0.036,7.47e-09,236000000.0,132.0,25
232.0,28.2011909485,60,0.036,7.47e-09,236000000.0,132.0,25
233.0,28.22852783204,60,0.036,7.47e-09,236000000.0,132.0,25
234.0,28.25586471558,60,0.036,7.47e-09,236000000.0,132.0,25
235.0,28.28320159912,60,0.036,7.47e-09,236000000.0,132.0,25
236.0,28.31053848266,60,0.036,7.47e-09,236000000.0,132.0,25
237.0,28.3378753662,60,0.036,7.47e-09,236000000.0,132.0,25
238.0,28.36497802733,60,0.036,7.47e-09,236000000.0,132.0,25
239.0,28.39208068846,60,0.036,7.47e-09,236000000.0,132.0,25
240.0,28.41918334959,60,0.036,7.47e-09,236000000.0,132.0,25
241.0,28.44628601072,60,0.036,7.47e-09,236000000.0,132.0,25
242.0,28.47338867185,60,0.036,7.47e-09,236000000.0,132.0,25
243.0,28.50049133298,60,0.036,7.47e-09,236000000.0,132.0,25
244.0,28.52759399411,60,0.036,7.47e-09,236000000.0,132.0,25
245.0,28.55469665524,60,0.036,7.47e-09,236000000.0,132.0,25
246.0,28.58179931637,60,0.036,7.47e-09,236000000.0,132.0,25
247.0,28.6089019775,60,0.036,7.47e-09,236000000.0,132.0,25
248.0,28.63577270504,60,0.036,7.47e-09,236000000.0,132.0,25
249.0,28.66264343258,60,0.036,7.47e-09,236000000.0,132.0,25
250.0,28.68951416012,60,0.036,7.47e-09,236000000.0,132.0,25
251.0,28.71638488766,60,0.036,7.47e-09,236000000.0,132.0,25
252.0,28.7432556152,60,0.036,7.47e-09,236000000.0,132.0,25
253.0,28.77012634274,60,0.036,7.47e-09,236000000.0,132.0,25
254.0,28.79699707028,60,0.036,7.47e-09,236000000.0,132.0,25
255.0,28.82386779782,60,0.036,7.47e-09,236000000.0,132.0,25
256.0,28.85073852536,60,0.036,7.47e-09,236000000.0,132.0,25
257.0,28.8776092529,60,0.036,7.47e-09,236000000.0,132.0,25
258.0,28.9042499542,60,0.036,7.47e-09,236000000.0,132.0,25
259.0,28.9308906555,60,0.036,7.47e-09,236000000.0,132.0,25
260.0,28.9575313568,60,0.036,7.47e-09,236000000.0,132.0,25
261.0,28.9841720581,60,0.036,7.47e-09,236000000.0,132.0,25
262.0,29.0108127594,60,0.036,7.47e-09,236000000.0,132.0,25
263.0,29.0374534607,60,0.036,7.47e-09,236000000.0,132.0,25
264.0,29.064094162,60,0.036,7.47e-09,236000000.0,132.0,25
265.0,29.0907348633,60,0.036,7.47e-09,236000000.0,132.0,25
266.0,29.1173755646,60,0.036,7.47e-09,236000000.0,132.0,25
267.0,29.1440162659,60,0.036,7.47e-09,236000000.0,132.0,25
268.0,29.17042884829,60,0.036,7.47e-09,236000000.0,132.0,25
269.0,29.19684143068,60,0.036,7.47e-09,236000000.0,132.0,25
270.0,29.22325401307,60,0.036,7.47e-09,236000000.0,132.0,25
271.0,29.24966659546,60,0.036,7.47e-09,236000000.0,132.0,25
272.0,29.27607917785,60,0.036,7.47e-09,236000000.0,132.0,25
273.0,29.30249176024,60,0.036,7.47e-09,236000000.0,132.0,25
274.0,29.32890434263,60,0.036,7.47e-09,236000000.0,132.0,25
275.0,29.35531692502,60,0.036,7.47e-09,236000000.0,132.0,25
276.0,29.38172950741,60,0.036,7.47e-09,236000000.0,132.0,25
277.0,29.4081420898,60,0.036,7.47e-09,236000000.0,132.0,25
278.0,29.43432884212,60,0.036,7.47e-09,236000000.0,132.0,25
279.0,29.46051559444,60,0.036,7.47e-09,236000000.0,132.0,25
280.0,29.48670234676,60,0.036,7.47e-09,236000000.0,132.0,25
281.0,29.51288909908,60,0.036,7.47e-09,236000000.0,132.0,25
282.0,29.5390758514,60,0.036,7.47e-09,236000000.0,132.0,25
283.0,29.56526260372,60,0.036,7.47e-09,236000000.0,132.0,25
284.0,29.59144935604,60,0.036,7.47e-09,236000000.0,132.0,25
285.0,29.61763610836,60,0.036,7.47e-09,236000000.0,132.0,25
286.0,29.64382286068,60,0.036,7.47e-09,236000000.0,132.0,25
287.0,29.670009613,60,0.036,7.47e-09,236000000.0,132.0,25
288.0,29.69597187039,60,0.036,7.47e-09,236000000.0,132.0,25
289.0,29.72193412778,60,0.036,7.47e-09,236000000.0,132.0,25
290.0,29.74789638517,60,0.036,7.47e-09,236000000.0,132.0,25
291.0,29.77385864256,60,0.036,7.47e-09,236000000.0,132.0,25
292.0,29.79982089995,60,0.036,7.47e-09,236000000.0,132.0,25
293.0,29.82578315734,60,0.036,7.47e-09,236000000.0,132.0,25
294.0,29.85174541473,60,0.036,7.47e-09,236000000.0,132.0,25
295.0,29.87770767212,60,0.036,7.47e-09,236000000.0,132.0,25
296.0,29.90366992951,60,0.036,7.47e-09,236000000.0,132.0,25
297.0,29.9296321869,60,0.036,7.47e-09,236000000.0,132.0,25
298.0,29.9553724289,60,0.036,7.47e-09,236000000.0,132.0,25
299.0,29.9811126709,60,0.036,7.47e-09,236000000.0,132.0,25
300.0,30.0068529129,60,0.036,7.47e-09,236000000.0,132.0,25
301.0,30.0325931549,60,0.036,7.47e-09,236000000.0,132.0,25
302.0,30.0583333969,60,0.036,7.47e-09,236000000.0,132.0,25
303.0,30.0840736389,60,0.036,7.47e-09,236000000.0,132.0,25
304.0,30.1098138809,60,0.036,7.47e-09,236000000.0,132.0,25
305.0,30.1355541229,60,0.036,7.47e-09,236000000.0,132.0,25
306.0,30.1612943649,60,0.036,7.47e-09,236000000.0,132.0,25
307.0,30.1870346069,60,0.036,7.47e-09,236000000.0,132.0,25
308.0,30.21255455014,60,0.036,7.47e-09,236000000.0,132.0,25
309.0,30.23807449338,60,0.036,7.47e-09,236000000.0,132.0,25
310.0,30.26359443662,60,0.036,7.47e-09,236000000.0,132.0,25
311.0,30.28911437986,60,0.036,7.47e-09,236000000.0,132.0,25
312.0,30.3146343231,60,0.036,7.47e-09,236000000.0,132.0,25
313.0,30.34015426634,60,0.036,7.47e-09,236000000.0,132.0,25
314.0,30.36567420958,60,0.036,7.47e-09,236000000.0,132.0,25
315.0,30.39119415282,60,0.036,7.47e-09,236000000.0,132.0,25
316.0,30.41671409606,60,0.036,7.47e-09,236000000.0,132.0,25
317.0,30.4422340393,60,0.036,7.47e-09,236000000.0,132.0,25
318.0,30.46753540038,60,0.036,7.47e-09,236000000.0,132.0,25
319.0,30.49283676146,60,0.036,7.47e-09,236000000.0,132.0,25
320.0,30.51813812254,60,0.036,7.47e-09,236000000.0,132.0,25
321.0,30.54343948362,60,0.036,7.47e-09,236000000.0,132.0,25
322.0,30.5687408447,60,0.036,7.47e-09,236000000.0,132.0,25
323.0,30.59404220578,60,0.036,7.47e-09,236000000.0,132.0,25
324.0,30.61934356686,60,0.036,7.47e-09,236000000.0,132.0,25
325.0,30.64464492794,60,0.036,7.47e-09,236000000.0,132.0,25
326.0,30.66994628902,60,0.036,7.47e-09,236000000.0,132.0,25
327.0,30.6952476501,60,0.036,7.47e-09,236000000.0,132.0,25
328.0,30.72033233638,60,0.036,7.47e-09,236000000.0,132.0,25
329.0,30.74541702266,60,0.036,7.47e-09,236000000.0,132.0,25
330.0,30.77050170894,60,0.036,7.47e-09,236000000.0,132.0,25
