time,T_int,T_ext_1,Film_Coef,Density,Specific_Heat,Thermal_Conductivity,Radius
1.0,21.9882183075,22.88,0.036,7.47e-09,786000000.0,132.0,25
2.0,21.978717804,23.76,0.036,7.47e-09,786000000.0,132.0,25
3.0,21.9708080292,24.64,0.036,7.47e-09,786000000.0,132.0,25
4.0,21.96490097045,25.52,0.036,7.47e-09,786000000.0,132.0,25
5.0,21.9589939117,26.4,0.036,7.47e-09,786000000.0,132.0,25
6.0,21.9557394981,27.28,0.036,7.47e-09,786000000.0,132.0,25
7.0,21.9524850845,28.16,0.036,7.47e-09,786000000.0,132.0,25
8.0,21.9492306709,29.04,0.036,7.47e-09,786000000.0,132.0,25
9.0,21.9459762573,29.92,0.036,7.47e-09,786000000.0,132.0,25
10.0,21.9469079971125,30.8,0.036,7.47e-09,786000000.0,132.0,25
11.0,21.947839736925,31.68,0.036,7.47e-09,786000000.0,132.0,25
12.0,21.9487714767375,32.56,0.036,7.47e-09,786000000.0,132.0,25
13.0,21.94970321655,33.44,0.036,7.47e-09,786000000.0,132.0,25
14.0,21.9506349563625,34.32,0.036,7.47e-09,786000000.0,132.0,25
15.0,21.951566696175,35.2,0.036,7.47e-09,786000000.0,132.0,25
16.0,21.9524984359875,36.08,0.036,7.47e-09,786000000.0,132.0,25
17.0,21.9534301758,36.96,0.036,7.47e-09,786000000.0,132.0,25
18.0,21.95919780733,37.84,0.036,7.47e-09,786000000.0,132.0,25
19.0,21.96496543886,38.72,0.036,7.47e-09,786000000.0,132.0,25
20.0,21.97073307039,39.6,0.036,7.47e-09,786000000.0,132.0,25
21.0,21.97650070192,40.48,0.036,7.47e-09,786000000.0,132.0,25
22.0,21.98226833345,41.36,0.036,7.47e-09,786000000.0,132.0,25
23.0,21.98803596498,42.24,0.036,7.47e-09,786000000.0,132.0,25
24.0,21.99380359651,43.12,0.036,7.47e-09,786000000.0,132.0,25
25.0,21.99957122804,44.0,0.036,7.47e-09,786000000.0,132.0,25
26.0,22.00533885957,44.88,0.036,7.47e-09,786000000.0,132.0,25
27.0,22.0111064911,45.76,0.036,7.47e-09,786000000.0,132.0,25
28.0,22.02160167695,46.64,0.036,7.47e-09,786000000.0,132.0,25
29.0,22.0320968628,47.52,0.036,7.47e-09,786000000.0,132.0,25
30.0,22.04259204865,48.4,0.036,7.47e-09,786000000.0,132.0,25
31.0,22.0530872345,49.28,0.036,7.47e-09,786000000.0,132.0,25
32.0,22.06358242035,50.16,0.036,7.47e-09,786000000.0,132.0,25
33.0,22.0740776062,51.04,0.036,7.47e-09,786000000.0,132.0,25
34.0,22.08457279205,51.92,0.036,7.47e-09,786000000.0,132.0,25
35.0,22.0950679779,52.8,0.036,7.47e-09,786000000.0,132.0,25
36.0,22.10556316375,53.68,0.036,7.47e-09,786000000.0,132.0,25
37.0,22.1160583496,54.56,0.036,7.47e-09,786000000.0,132.0,25
38.0,22.13124885558,55.44,0.036,7.47e-09,786000000.0,132.0,25
39.0,22.14643936156,56.32,0.036,7.47e-09,786000000.0,132.0,25
40.0,22.16162986754,57.2,0.036,7.47e-09,786000000.0,132.0,25
41.0,22.17682037352,58.08,0.036,7.47e-09,786000000.0,132.0,25
42.0,22.1920108795,58.96,0.036,7.47e-09,786000000.0,132.0,25
43.0,22.20720138548,59.84,0.036,7.47e-09,786000000.0,132.0,25
44.0,22.22239189146,60.72,0.036,7.47e-09,786000000.0,132.0,25
45.0,22.23758239744,61.6,0.036,7.47e-09,786000000.0,132.0,25
46.0,22.25277290342,62.48,0.036,7.47e-09,786000000.0,132.0,25
47.0,22.2679634094,63.36,0.036,7.47e-09,786000000.0,132.0,25
48.0,22.28367767332,64.24,0.036,7.47e-09,786000000.0,132.0,25
49.0,22.29939193724,65.12,0.036,7.47e-09,786000000.0,132.0,25
50.0,22.31510620116,66.0,0.036,7.47e-09,786000000.0,132.0,25
51.0,22.33082046508,62.94,0.036,7.47e-09,786000000.0,132.0,25
52.0,22.346534729,62.88,0.036,7.47e-09,786000000.0,132.0,25
53.0,22.36224899292,62.82,0.036,7.47e-09,786000000.0,132.0,25
54.0,22.37796325684,62.76,0.036,7.47e-09,786000000.0,132.0,25
55.0,22.39367752076,62.7,0.036,7.47e-09,786000000.0,132.0,25
56.0,22.40939178468,62.64,0.036,7.47e-09,786000000.0,132.0,25
57.0,22.4251060486,62.58,0.036,7.47e-09,786000000.0,132.0,25
58.0,22.44000816347,62.52,0.036,7.47e-09,786000000.0,132.0,25
59.0,22.45491027834,62.46,0.036,7.47e-09,786000000.0,132.0,25
60.0,22.46981239321,62.4,0.036,7.47e-09,786000000.0,132.0,25
61.0,22.48471450808,62.34,0.036,7.47e-09,786000000.0,132.0,25
62.0,22.49961662295,62.28,0.036,7.47e-09,786000000.0,132.0,25
63.0,22.51451873782,62.22,0.036,7.47e-09,786000000.0,132.0,25
64.0,22.52942085269,62.16,0.036,7.47e-09,786000000.0,132.0,25
65.0,22.54432296756,62.1,0.036,7.47e-09,786000000.0,132.0,25
66.0,22.55922508243,62.04,0.036,7.47e-09,786000000.0,132.0,25
67.0,22.5741271973,61.98,0.036,7.47e-09,786000000.0,132.0,25
68.0,22.58849754337,61.92,0.036,7.47e-09,786000000.0,132.0,25
69.0,22.60286788944,61.86,0.036,7.47e-09,786000000.0,132.0,25
70.0,22.61723823551,61.8,0.036,7.47e-09,786000000.0,132.0,25
71.0,22.63160858158,61.74,0.036,7.47e-09,786000000.0,132.0,25
72.0,22.64597892765,61.68,0.036,7.47e-09,786000000.0,132.0,25
73.0,22.66034927372,61.62,0.036,7.47e-09,786000000.0,132.0,25
74.0,22.67471961979,61.56,0.036,7.47e-09,786000000.0,132.0,25
75.0,22.68908996586,61.5,0.036,7.47e-09,786000000.0,132.0,25
76.0,22.70346031193,61.44,0.036,7.47e-09,786000000.0,132.0,25
77.0,22.717830658,61.38,0.036,7.47e-09,786000000.0,132.0,25
78.0,22.73172550205,61.32,0.036,7.47e-09,786000000.0,132.0,25
79.0,22.7456203461,61.26,0.036,7.47e-09,786000000.0,132.0,25
80.0,22.75951519015,61.2,0.036,7.47e-09,786000000.0,132.0,25
81.0,22.7734100342,61.14,0.036,7.47e-09,786000000.0,132.0,25
82.0,22.78730487825,61.08,0.036,7.47e-09,786000000.0,132.0,25
83.0,22.8011997223,61.02,0.036,7.47e-09,786000000.0,132.0,25
84.0,22.81509456635,60.96,0.036,7.47e-09,786000000.0,132.0,25
85.0,22.8289894104,60.9,0.036,7.47e-09,786000000.0,132.0,25
86.0,22.84288425445,60.84,0.036,7.47e-09,786000000.0,132.0,25
87.0,22.8567790985,60.78,0.036,7.47e-09,786000000.0,132.0,25
88.0,22.87020854949,60.72,0.036,7.47e-09,786000000.0,132.0,25
89.0,22.88363800048,60.66,0.036,7.47e-09,786000000.0,132.0,25
90.0,22.89706745147,60.6,0.036,7.47e-09,786000000.0,132.0,25
91.0,22.91049690246,60.54,0.036,7.47e-09,786000000.0,132.0,25
92.0,22.92392635345,60.48,0.036,7.47e-09,786000000.0,132.0,25
93.0,22.93735580444,60.42,0.036,7.47e-09,786000000.0,132.0,25
94.0,22.95078525543,60.36,0.036,7.47e-09,786000000.0,132.0,25
95.0,22.96421470642,60.3,0.036,7.47e-09,786000000.0,132.0,25
96.0,22.97764415741,60.24,0.036,7.47e-09,786000000.0,132.0,25
97.0,22.9910736084,60.18,0.036,7.47e-09,786000000.0,132.0,25
98.0,23.00438365936,60.12,0.036,7.47e-09,786000000.0,132.0,25
99.0,23.01769371032,60.06,0.036,7.47e-09,786000000.0,132.0,25
100.0,23.03100376128,60.0,0.036,7.47e-09,786000000.0,132.0,25
101.0,23.04431381224,60,0.036,7.47e-09,786000000.0,132.0,25
102.0,23.0576238632,60,0.036,7.47e-09,786000000.0,132.0,25
103.0,23.07093391416,60,0.036,7.47e-09,786000000.0,132.0,25
104.0,23.08424396512,60,0.036,7.47e-09,786000000.0,132.0,25
105.0,23.09755401608,60,0.036,7.47e-09,786000000.0,132.0,25
106.0,23.11086406704,60,0.036,7.47e-09,786000000.0,132.0,25
107.0,23.124174118,60,0.036,7.47e-09,786000000.0,132.0,25
108.0,23.13747310635,60,0.036,7.47e-09,786000000.0,132.0,25
109.0,23.1507720947,60,0.036,7.47e-09,786000000.0,132.0,25
110.0,23.16407108305,60,0.036,7.47e-09,786000000.0,132.0,25
111.0,23.1773700714,60,0.036,7.47e-09,786000000.0,132.0,25
112.0,23.19066905975,60,0.036,7.47e-09,786000000.0,132.0,25
113.0,23.2039680481,60,0.036,7.47e-09,786000000.0,132.0,25
114.0,23.21726703645,60,0.036,7.47e-09,786000000.0,132.0,25
115.0,23.2305660248,60,0.036,7.47e-09,786000000.0,132.0,25
116.0,23.24386501315,60,0.036,7.47e-09,786000000.0,132.0,25
117.0,23.2571640015,60,0.036,7.47e-09,786000000.0,132.0,25
118.0,23.27042579654,60,0.036,7.47e-09,786000000.0,132.0,25
119.0,23.28368759158,60,0.036,7.47e-09,786000000.0,132.0,25
120.0,23.29694938662,60,0.036,7.47e-09,786000000.0,132.0,25
121.0,23.31021118166,60,0.036,7.47e-09,786000000.0,132.0,25
122.0,23.3234729767,60,0.036,7.47e-09,786000000.0,132.0,25
123.0,23.33673477174,60,0.036,7.47e-09,786000000.0,132.0,25
124.0,23.34999656678,60,0.036,7.47e-09,786000000.0,132.0,25
125.0,23.36325836182,60,0.036,7.47e-09,786000000.0,132.0,25
126.0,23.37652015686,60,0.036,7.47e-09,786000000.0,132.0,25
127.0,23.3897819519,60,0.036,7.47e-09,786000000.0,132.0,25
128.0,23.40300006866,60,0.036,7.47e-09,786000000.0,132.0,25
129.0,23.41621818542,60,0.036,7.47e-09,786000000.0,132.0,25
130.0,23.42943630218,60,0.036,7.47e-09,786000000.0,132.0,25
131.0,23.44265441894,60,0.036,7.47e-09,786000000.0,132.0,25
132.0,23.4558725357,60,0.036,7.47e-09,786000000.0,132.0,25
133.0,23.46909065246,60,0.036,7.47e-09,786000000.0,132.0,25
134.0,23.48230876922,60,0.036,7.47e-09,786000000.0,132.0,25
135.0,23.49552688598,60,0.036,7.47e-09,786000000.0,132.0,25
136.0,23.50874500274,60,0.036,7.47e-09,786000000.0,132.0,25
137.0,23.5219631195,60,0.036,7.47e-09,786000000.0,132.0,25
138.0,23.53513526916,60,0.036,7.47e-09,786000000.0,132.0,25
139.0,23.54830741882,60,0.036,7.47e-09,786000000.0,132.0,25
140.0,23.56147956848,60,0.036,7.47e-09,786000000.0,132.0,25
141.0,23.57465171814,60,0.036,7.47e-09,786000000.0,132.0,25
142.0,23.5878238678,60,0.036,7.47e-09,786000000.0,132.0,25
143.0,23.60099601746,60,0.036,7.47e-09,786000000.0,132.0,25
144.0,23.61416816712,60,0.036,7.47e-09,786000000.0,132.0,25
145.0,23.62734031678,60,0.036,7.47e-09,786000000.0,132.0,25
146.0,23.64051246644,60,0.036,7.47e-09,786000000.0,132.0,25
147.0,23.6536846161,60,0.036,7.47e-09,786000000.0,132.0,25
148.0,23.66681022645,60,0.036,7.47e-09,786000000.0,132.0,25
149.0,23.6799358368,60,0.036,7.47e-09,786000000.0,132.0,25
150.0,23.69306144715,60,0.036,7.47e-09,786000000.0,132.0,25
151.0,23.7061870575,60,0.036,7.47e-09,786000000.0,132.0,25
152.0,23.71931266785,60,0.036,7.47e-09,786000000.0,132.0,25
153.0,23.7324382782,60,0.036,7.47e-09,786000000.0,132.0,25
154.0,23.74556388855,60,0.036,7.47e-09,786000000.0,132.0,25
155.0,23.7586894989,60,0.036,7.47e-09,786000000.0,132.0,25
156.0,23.77181510925,60,0.036,7.47e-09,786000000.0,132.0,25
157.0,23.7849407196,60,0.036,7.47e-09,786000000.0,132.0,25
158.0,23.79801959991,60,0.036,7.47e-09,786000000.0,132.0,25
159.0,23.81109848022,60,0.036,7.47e-09,786000000.0,132.0,25
160.0,23.82417736053,60,0.036,7.47e-09,786000000.0,132.0,25
161.0,23.83725624084,60,0.036,7.47e-09,786000000.0,132.0,25
162.0,23.85033512115,60,0.036,7.47e-09,786000000.0,132.0,25
163.0,23.86341400146,60,0.036,7.47e-09,786000000.0,132.0,25
164.0,23.87649288177,60,0.036,7.47e-09,786000000.0,132.0,25
165.0,23.88957176208,60,0.036,7.47e-09,786000000.0,132.0,25
166.0,23.90265064239,60,0.036,7.47e-09,786000000.0,132.0,25
167.0,23.9157295227,60,0.036,7.47e-09,786000000.0,132.0,25
168.0,23.9287612915,60,0.036,7.47e-09,786000000.0,132.0,25
169.0,23.9417930603,60,0.036,7.47e-09,786000000.0,132.0,25
170.0,23.9548248291,60,0.036,7.47e-09,786000000.0,132.0,25
171.0,23.9678565979,60,0.036,7.47e-09,786000000.0,132.0,25
172.0,23.9808883667,60,0.036,7.47e-09,786000000.0,132.0,25
173.0,23.9939201355,60,0.036,7.47e-09,786000000.0,132.0,25
174.0,24.0069519043,60,0.036,7.47e-09,786000000.0,132.0,25
175.0,24.0199836731,60,0.036,7.47e-09,786000000.0,132.0,25
176.0,24.0330154419,60,0.036,7.47e-09,786000000.0,132.0,25
177.0,24.0460472107,60,0.036,7.47e-09,786000000.0,132.0,25
178.0,24.05903224946,60,0.036,7.47e-09,786000000.0,132.0,25
179.0,24.07201728822,60,0.036,7.47e-09,786000000.0,132.0,25
180.0,24.08500232698,60,0.036,7.47e-09,786000000.0,132.0,25
181.0,24.09798736574,60,0.036,7.47e-09,786000000.0,132.0,25
182.0,24.1109724045,60,0.036,7.47e-09,786000000.0,132.0,25
183.0,24.12395744326,60,0.036,7.47e-09,786000000.0,132.0,25
184.0,24.13694248202,60,0.036,7.47e-09,786000000.0,132.0,25
185.0,24.14992752078,60,0.036,7.47e-09,786000000.0,132.0,25
186.0,24.16291255954,60,0.036,7.47e-09,786000000.0,132.0,25
187.0,24.1758975983,60,0.036,7.47e-09,786000000.0,132.0,25
188.0,24.18883590701,60,0.036,7.47e-09,786000000.0,132.0,25
189.0,24.20177421572,60,0.036,7.47e-09,786000000.0,132.0,25
190.0,24.21471252443,60,0.036,7.47e-09,786000000.0,132.0,25
191.0,24.22765083314,60,0.036,7.47e-09,786000000.0,132.0,25
192.0,24.24058914185,60,0.036,7.47e-09,786000000.0,132.0,25
193.0,24.25352745056,60,0.036,7.47e-09,786000000.0,132.0,25
194.0,24.26646575927,60,0.036,7.47e-09,786000000.0,132.0,25
195.0,24.27940406798,60,0.036,7.47e-09,786000000.0,132.0,25
196.0,24.29234237669,60,0.036,7.47e-09,786000000.0,132.0,25
197.0,24.3052806854,60,0.036,7.47e-09,786000000.0,132.0,25
198.0,24.31817226408,60,0.036,7.47e-09,786000000.0,132.0,25
199.0,24.33106384276,60,0.036,7.47e-09,786000000.0,132.0,25
200.0,24.34395542144,60,0.036,7.47e-09,786000000.0,132.0,25
201.0,24.35684700012,60,0.036,7.47e-09,786000000.0,132.0,25
202.0,24.3697385788,60,0.036,7.47e-09,786000000.0,132.0,25
203.0,24.38263015748,60,0.036,7.47e-09,786000000.0,132.0,25
204.0,24.39552173616,60,0.036,7.47e-09,786000000.0,132.0,25
205.0,24.40841331484,60,0.036,7.47e-09,786000000.0,132.0,25
206.0,24.42130489352,60,0.036,7.47e-09,786000000.0,132.0,25
207.0,24.4341964722,60,0.036,7.47e-09,786000000.0,132.0,25
208.0,24.44704151156,60,0.036,7.47e-09,786000000.0,132.0,25
209.0,24.45988655092,60,0.036,7.47e-09,786000000.0,132.0,25
210.0,24.47273159028,60,0.036,7.47e-09,786000000.0,132.0,25
211.0,24.48557662964,60,0.036,7.47e-09,786000000.0,132.0,25
212.0,24.498421669,60,0.036,7.47e-09,786000000.0,132.0,25
213.0,24.51126670836,60,0.036,7.47e-09,786000000.0,132.0,25
214.0,24.52411174772,60,0.036,7.47e-09,786000000.0,132.0,25
215.0,24.53695678708,60,0.036,7.47e-09,786000000.0,132.0,25
216.0,24.54980182644,60,0.036,7.47e-09,786000000.0,132.0,25
217.0,24.5626468658,60,0.036,7.47e-09,786000000.0,132.0,25
218.0,24.57544574734,60,0.036,7.47e-09,786000000.0,132.0,25
219.0,24.58824462888,60,0.036,7.47e-09,786000000.0,132.0,25
220.0,24.60104351042,60,0.036,7.47e-09,786000000.0,132.0,25
221.0,24.61384239196,60,0.036,7.47e-09,786000000.0,132.0,25
222.0,24.6266412735,60,0.036,7.47e-09,786000000.0,132.0,25
223.0,24.63944015504,60,0.036,7.47e-09,786000000.0,132.0,25
224.0,24.65223903658,60,0.036,7.47e-09,786000000.0,132.0,25
225.0,24.66503791812,60,0.036,7.47e-09,786000000.0,132.0,25
226.0,24.67783679966,60,0.036,7.47e-09,786000000.0,132.0,25
227.0,24.6906356812,60,0.036,7.47e-09,786000000.0,132.0,25
228.0,24.70338821415,60,0.036,7.47e-09,786000000.0,132.0,25
229.0,24.7161407471,60,0.036,7.47e-09,786000000.0,132.0,25
230.0,24.72889328005,60,0.036,7.47e-09,786000000.0,132.0,25
231.0,24.741645813,60,0.036,7.47e-09,786000000.0,132.0,25
232.0,24.75439834595,60,0.036,7.47e-09,786000000.0,132.0,25
233.0,24.7671508789,60,0.036,7.47e-09,786000000.0,132.0,25
234.0,24.77990341185,60,0.036,7.47e-09,786000000.0,132.0,25
235.0,24.7926559448,60,0.036,7.47e-09,786000000.0,132.0,25
236.0,24.80540847775,60,0.036,7.47e-09,786000000.0,132.0,25
237.0,24.8181610107,60,0.036,7.47e-09,786000000.0,132.0,25
238.0,24.83086757656,60,0.036,7.47e-09,786000000.0,132.0,25
239.0,24.84357414242,60,0.036,7.47e-09,786000000.0,132.0,25
240.0,24.85628070828,60,0.036,7.47e-09,786000000.0,132.0,25
241.0,24.86898727414,60,0.036,7.47e-09,786000000.0,132.0,25
242.0,24.88169384,60,0.036,7.47e-09,786000000.0,132.0,25
243.0,24.89440040586,60,0.036,7.47e-09,786000000.0,132.0,25
244.0,24.90710697172,60,0.036,7.47e-09,786000000.0,132.0,25
245.0,24.91981353758,60,0.036,7.47e-09,786000000.0,132.0,25
246.0,24.93252010344,60,0.036,7.47e-09,786000000.0,132.0,25
247.0,24.9452266693,60,0.036,7.47e-09,786000000.0,132.0,25
248.0,24.95788726806,60,0.036,7.47e-09,786000000.0,132.0,25
249.0,24.97054786682,60,0.036,7.47e-09,786000000.0,132.0,25
250.0,24.98320846558,60,0.036,7.47e-09,786000000.0,132.0,25
251.0,24.99586906434,60,0.036,7.47e-09,786000000.0,132.0,25
252.0,25.0085296631,60,0.036,7.47e-09,786000000.0,132.0,25
253.0,25.02119026186,60,0.036,7.47e-09,786000000.0,132.0,25
254.0,25.03385086062,60,0.036,7.47e-09,786000000.0,132.0,25
255.0,25.04651145938,60,0.036,7.47e-09,786000000.0,132.0,25
256.0,25.05917205814,60,0.036,7.47e-09,786000000.0,132.0,25
257.0,25.0718326569,60,0.036,7.47e-09,786000000.0,132.0,25
258.0,25.08444767002,60,0.036,7.47e-09,786000000.0,132.0,25
259.0,25.09706268314,60,0.036,7.47e-09,786000000.0,132.0,25
260.0,25.10967769626,60,0.036,7.47e-09,786000000.0,132.0,25
261.0,25.12229270938,60,0.036,7.47e-09,786000000.0,132.0,25
262.0,25.1349077225,60,0.036,7.47e-09,786000000.0,132.0,25
263.0,25.14752273562,60,0.036,7.47e-09,786000000.0,132.0,25
264.0,25.16013774874,60,0.036,7.47e-09,786000000.0,132.0,25
265.0,25.17275276186,60,0.036,7.47e-09,786000000.0,132.0,25
266.0,25.18536777498,60,0.036,7.47e-09,786000000.0,132.0,25
267.0,25.1979827881,60,0.036,7.47e-09,786000000.0,132.0,25
268.0,25.21055202485,60,0.036,7.47e-09,786000000.0,132.0,25
269.0,25.2231212616,60,0.036,7.47e-09,786000000.0,132.0,25
270.0,25.23569049835,60,0.036,7.47e-09,786000000.0,132.0,25
271.0,25.2482597351,60,0.036,7.47e-09,786000000.0,132.0,25
272.0,25.26082897185,60,0.036,7.47e-09,786000000.0,132.0,25
273.0,25.2733982086,60,0.036,7.47e-09,786000000.0,132.0,25
274.0,25.28596744535,60,0.036,7.47e-09,786000000.0,132.0,25
275.0,25.2985366821,60,0.036,7.47e-09,786000000.0,132.0,25
276.0,25.31110591885,60,0.036,7.47e-09,786000000.0,132.0,25
277.0,25.3236751556,60,0.036,7.47e-09,786000000.0,132.0,25
278.0,25.3361991882,60,0.036,7.47e-09,786000000.0,132.0,25
279.0,25.3487232208,60,0.036,7.47e-09,786000000.0,132.0,25
280.0,25.3612472534,60,0.036,7.47e-09,786000000.0,132.0,25
281.0,25.373771286,60,0.036,7.47e-09,786000000.0,132.0,25
282.0,25.3862953186,60,0.036,7.47e-09,786000000.0,132.0,25
283.0,25.3988193512,60,0.036,7.47e-09,786000000.0,132.0,25
284.0,25.4113433838,60,0.036,7.47e-09,786000000.0,132.0,25
285.0,25.4238674164,60,0.036,7.47e-09,786000000.0,132.0,25
286.0,25.436391449,60,0.036,7.47e-09,786000000.0,132.0,25
287.0,25.4489154816,60,0.036,7.47e-09,786000000.0,132.0,25
288.0,25.46139431003,60,0.036,7.47e-09,786000000.0,132.0,25
289.0,25.47387313846,60,0.036,7.47e-09,786000000.0,132.0,25
290.0,25.48635196689,60,0.036,7.47e-09,786000000.0,132.0,25
291.0,25.49883079532,60,0.036,7.47e-09,786000000.0,132.0,25
292.0,25.51130962375,60,0.036,7.47e-09,786000000.0,132.0,25
293.0,25.52378845218,60,0.036,7.47e-09,786000000.0,132.0,25
294.0,25.53626728061,60,0.036,7.47e-09,786000000.0,132.0,25
295.0,25.54874610904,60,0.036,7.47e-09,786000000.0,132.0,25
296.0,25.56122493747,60,0.036,7.47e-09,786000000.0,132.0,25
297.0,25.5737037659,60,0.036,7.47e-09,786000000.0,132.0,25
298.0,25.58613739016,60,0.036,7.47e-09,786000000.0,132.0,25
299.0,25.59857101442,60,0.036,7.47e-09,786000000.0,132.0,25
300.0,25.61100463868,60,0.036,7.47e-09,786000000.0,132.0,25
301.0,25.62343826294,60,0.036,7.47e-09,786000000.0,132.0,25
302.0,25.6358718872,60,0.036,7.47e-09,786000000.0,132.0,25
303.0,25.64830551146,60,0.036,7.47e-09,786000000.0,132.0,25
304.0,25.66073913572,60,0.036,7.47e-09,786000000.0,132.0,25
305.0,25.67317275998,60,0.036,7.47e-09,786000000.0,132.0,25
306.0,25.68560638424,60,0.036,7.47e-09,786000000.0,132.0,25
307.0,25.6980400085,60,0.036,7.47e-09,786000000.0,132.0,25
308.0,25.71042881008,60,0.036,7.47e-09,786000000.0,132.0,25
309.0,25.72281761166,60,0.036,7.47e-09,786000000.0,132.0,25
310.0,25.73520641324,60,0.036,7.47e-09,786000000.0,132.0,25
311.0,25.74759521482,60,0.036,7.47e-09,786000000.0,132.0,25
312.0,25.7599840164,60,0.036,7.47e-09,786000000.0,132.0,25
313.0,25.77237281798,60,0.036,7.47e-09,786000000.0,132.0,25
314.0,25.78476161956,60,0.036,7.47e-09,786000000.0,132.0,25
315.0,25.79715042114,60,0.036,7.47e-09,786000000.0,132.0,25
316.0,25.80953922272,60,0.036,7.47e-09,786000000.0,132.0,25
317.0,25.8219280243,60,0.036,7.47e-09,786000000.0,132.0,25
318.0,25.83427200318,60,0.036,7.47e-09,786000000.0,132.0,25
319.0,25.84661598206,60,0.036,7.47e-09,786000000.0,132.0,25
320.0,25.85895996094,60,0.036,7.47e-09,786000000.0,132.0,25
321.0,25.87130393982,60,0.036,7.47e-09,786000000.0,132.0,25
322.0,25.8836479187,60,0.036,7.47e-09,786000000.0,132.0,25
323.0,25.89599189758,60,0.036,7.47e-09,786000000.0,132.0,25
324.0,25.90833587646,60,0.036,7.47e-09,786000000.0,132.0,25
325.0,25.92067985534,60,0.036,7.47e-09,786000000.0,132.0,25
326.0,25.93302383422,60,0.036,7.47e-09,786000000.0,132.0,25
327.0,25.9453678131,60,0.036,7.47e-09,786000000.0,132.0,25
328.0,25.95766735076,60,0.036,7.47e-09,786000000.0,132.0,25
329.0,25.96996688842,60,0.036,7.47e-09,786000000.0,132.0,25
330.0,25.98226642608,60,0.036,7.47e-09,786000000.0,132.0,25
