time,T_int,T_ext_1,Film_Coef,Density,Specific_Heat,Thermal_Conductivity,Radius
1.0,21.9487743378,22.88,0.036,7.87e-09,536000000.0,52.0,15
2.0,21.9055862427,23.76,0.036,7.87e-09,536000000.0,52.0,15
3.0,21.8690109253,24.64,0.036,7.87e-09,536000000.0,52.0,15
4.0,21.84212112425,25.52,0.036,7.87e-09,536000000.0,52.0,15
5.0,21.8152313232,26.4,0.036,7.87e-09,536000000.0,52.0,15
6.0,21.801549434625,27.28,0.036,7.87e-09,536000000.0,52.0,15
7.0,21.78786754605,28.16,0.036,7.87e-09,536000000.0,52.0,15
8.0,21.774185657475,29.04,0.036,7.87e-09,536000000.0,52.0,15
9.0,21.7605037689,29.92,0.036,7.87e-09,536000000.0,52.0,15
10.0,21.7659523486875,30.8,0.036,7.87e-09,536000000.0,52.0,15
11.0,21.771400928475,31.68,0.036,7.87e-09,536000000.0,52.0,15
12.0,21.7768495082625,32.56,0.036,7.87e-09,536000000.0,52.0,15
13.0,21.78229808805,33.44,0.036,7.87e-09,536000000.0,52.0,15
14.0,21.7877466678375,34.32,0.036,7.87e-09,536000000.0,52.0,15
15.0,21.793195247625,35.2,0.036,7.87e-09,536000000.0,52.0,15
16.0,21.7986438274125,36.08,0.036,7.87e-09,536000000.0,52.0,15
17.0,21.8040924072,36.96,0.036,7.87e-09,536000000.0,52.0,15
18.0,21.8299808502,37.84,0.036,7.87e-09,536000000.0,52.0,15
19.0,21.8558692932,38.72,0.036,7.87e-09,536000000.0,52.0,15
20.0,21.8817577362,39.6,0.036,7.87e-09,536000000.0,52.0,15
21.0,21.9076461792,40.48,0.036,7.87e-09,536000000.0,52.0,15
22.0,21.9335346222,41.36,0.036,7.87e-09,536000000.0,52.0,15
23.0,21.9594230652,42.24,0.036,7.87e-09,536000000.0,52.0,15
24.0,21.9853115082,43.12,0.036,7.87e-09,536000000.0,52.0,15
25.0,22.0111999512,44.0,0.036,7.87e-09,536000000.0,52.0,15
26.0,22.0370883942,44.88,0.036,7.87e-09,536000000.0,52.0,15
27.0,22.0629768372,45.76,0.036,7.87e-09,536000000.0,52.0,15
28.0,22.1079282761,46.64,0.036,7.87e-09,536000000.0,52.0,15
29.0,22.152879715,47.52,0.036,7.87e-09,536000000.0,52.0,15
30.0,22.1978311539,48.4,0.036,7.87e-09,536000000.0,52.0,15
31.0,22.2427825928,49.28,0.036,7.87e-09,536000000.0,52.0,15
32.0,22.2877340317,50.16,0.036,7.87e-09,536000000.0,52.0,15
33.0,22.3326854706,51.04,0.036,7.87e-09,536000000.0,52.0,15
34.0,22.3776369095,51.92,0.036,7.87e-09,536000000.0,52.0,15
35.0,22.4225883484,52.8,0.036,7.87e-09,536000000.0,52.0,15
36.0,22.4675397873,53.68,0.036,7.87e-09,536000000.0,52.0,15
37.0,22.5124912262,54.56,0.036,7.87e-09,536000000.0,52.0,15
38.0,22.57580623627,55.44,0.036,7.87e-09,536000000.0,52.0,15
39.0,22.63912124634,56.32,0.036,7.87e-09,536000000.0,52.0,15
40.0,22.70243625641,57.2,0.036,7.87e-09,536000000.0,52.0,15
41.0,22.76575126648,58.08,0.036,7.87e-09,536000000.0,52.0,15
42.0,22.82906627655,58.96,0.036,7.87e-09,536000000.0,52.0,15
43.0,22.89238128662,59.84,0.036,7.87e-09,536000000.0,52.0,15
44.0,22.95569629669,60.72,0.036,7.87e-09,536000000.0,52.0,15
45.0,23.01901130676,61.6,0.036,7.87e-09,536000000.0,52.0,15
46.0,23.08232631683,62.48,0.036,7.87e-09,536000000.0,52.0,15
47.0,23.1456413269,63.36,0.036,7.87e-09,536000000.0,52.0,15
48.0,23.20884742736,64.24,0.036,7.87e-09,536000000.0,52.0,15
49.0,23.27205352782,65.12,0.036,7.87e-09,536000000.0,52.0,15
50.0,23.33525962828,66.0,0.036,7.87e-09,536000000.0,52.0,15
51.0,23.39846572874,62.94,0.036,7.87e-09,536000000.0,52.0,15
52.0,23.4616718292,62.88,0.036,7.87e-09,536000000.0,52.0,15
53.0,23.52487792966,62.82,0.036,7.87e-09,536000000.0,52.0,15
54.0,23.58808403012,62.76,0.036,7.87e-09,536000000.0,52.0,15
55.0,23.65129013058,62.7,0.036,7.87e-09,536000000.0,52.0,15
56.0,23.71449623104,62.64,0.036,7.87e-09,536000000.0,52.0,15
57.0,23.7777023315,62.58,0.036,7.87e-09,536000000.0,52.0,15
58.0,23.83553600307,62.52,0.036,7.87e-09,536000000.0,52.0,15
59.0,23.89336967464,62.46,0.036,7.87e-09,536000000.0,52.0,15
60.0,23.95120334621,62.4,0.036,7.87e-09,536000000.0,52.0,15
61.0,24.00903701778,62.34,0.036,7.87e-09,536000000.0,52.0,15
62.0,24.06687068935,62.28,0.036,7.87e-09,536000000.0,52.0,15
63.0,24.12470436092,62.22,0.036,7.87e-09,536000000.0,52.0,15
64.0,24.18253803249,62.16,0.036,7.87e-09,536000000.0,52.0,15
65.0,24.24037170406,62.1,0.036,7.87e-09,536000000.0,52.0,15
66.0,24.29820537563,62.04,0.036,7.87e-09,536000000.0,52.0,15
67.0,24.3560390472,61.98,0.036,7.87e-09,536000000.0,52.0,15
68.0,24.41041507717,61.92,0.036,7.87e-09,536000000.0,52.0,15
69.0,24.46479110714,61.86,0.036,7.87e-09,536000000.0,52.0,15
70.0,24.51916713711,61.8,0.036,7.87e-09,536000000.0,52.0,15
71.0,24.57354316708,61.74,0.036,7.87e-09,536000000.0,52.0,15
72.0,24.62791919705,61.68,0.036,7.87e-09,536000000.0,52.0,15
73.0,24.68229522702,61.62,0.036,7.87e-09,536000000.0,52.0,15
74.0,24.73667125699,61.56,0.036,7.87e-09,536000000.0,52.0,15
75.0,24.79104728696,61.5,0.036,7.87e-09,536000000.0,52.0,15
76.0,24.84542331693,61.44,0.036,7.87e-09,536000000.0,52.0,15
77.0,24.8997993469,61.38,0.036,7.87e-09,536000000.0,52.0,15
78.0,24.95137348173,61.32,0.036,7.87e-09,536000000.0,52.0,15
79.0,25.00294761656,61.26,0.036,7.87e-09,536000000.0,52.0,15
80.0,25.05452175139,61.2,0.036,7.87e-09,536000000.0,52.0,15
81.0,25.10609588622,61.14,0.036,7.87e-09,536000000.0,52.0,15
82.0,25.15767002105,61.08,0.036,7.87e-09,536000000.0,52.0,15
83.0,25.20924415588,61.02,0.036,7.87e-09,536000000.0,52.0,15
84.0,25.26081829071,60.96,0.036,7.87e-09,536000000.0,52.0,15
85.0,25.31239242554,60.9,0.036,7.87e-09,536000000.0,52.0,15
86.0,25.36396656037,60.84,0.036,7.87e-09,536000000.0,52.0,15
87.0,25.4155406952,60.78,0.036,7.87e-09,536000000.0,52.0,15
88.0,25.46458377839,60.72,0.036,7.87e-09,536000000.0,52.0,15
89.0,25.51362686158,60.66,0.036,7.87e-09,536000000.0,52.0,15
90.0,25.56266994477,60.6,0.036,7.87e-09,536000000.0,52.0,15
91.0,25.61171302796,60.54,0.036,7.87e-09,536000000.0,52.0,15
92.0,25.66075611115,60.48,0.036,7.87e-09,536000000.0,52.0,15
93.0,25.70979919434,60.42,0.036,7.87e-09,536000000.0,52.0,15
94.0,25.75884227753,60.36,0.036,7.87e-09,536000000.0,52.0,15
95.0,25.80788536072,60.3,0.036,7.87e-09,536000000.0,52.0,15
96.0,25.85692844391,60.24,0.036,7.87e-09,536000000.0,52.0,15
97.0,25.9059715271,60.18,0.036,7.87e-09,536000000.0,52.0,15
98.0,25.95411586762,60.12,0.036,7.87e-09,536000000.0,52.0,15
99.0,26.00226020814,60.06,0.036,7.87e-09,536000000.0,52.0,15
100.0,26.05040454866,60.0,0.036,7.87e-09,536000000.0,52.0,15
101.0,26.09854888918,60,0.036,7.87e-09,536000000.0,52.0,15
102.0,26.1466932297,60,0.036,7.87e-09,536000000.0,52.0,15
103.0,26.19483757022,60,0.036,7.87e-09,536000000.0,52.0,15
104.0,26.24298191074,60,0.036,7.87e-09,536000000.0,52.0,15
105.0,26.29112625126,60,0.036,7.87e-09,536000000.0,52.0,15
106.0,26.33927059178,60,0.036,7.87e-09,536000000.0,52.0,15
107.0,26.3874149323,60,0.036,7.87e-09,536000000.0,52.0,15
108.0,26.43514156346,60,0.036,7.87e-09,536000000.0,52.0,15
109.0,26.48286819462,60,0.036,7.87e-09,536000000.0,52.0,15
110.0,26.53059482578,60,0.036,7.87e-09,536000000.0,52.0,15
111.0,26.57832145694,60,0.036,7.87e-09,536000000.0,52.0,15
112.0,26.6260480881,60,0.036,7.87e-09,536000000.0,52.0,15
113.0,26.67377471926,60,0.036,7.87e-09,536000000.0,52.0,15
114.0,26.72150135042,60,0.036,7.87e-09,536000000.0,52.0,15
115.0,26.76922798158,60,0.036,7.87e-09,536000000.0,52.0,15
116.0,26.81695461274,60,0.036,7.87e-09,536000000.0,52.0,15
117.0,26.8646812439,60,0.036,7.87e-09,536000000.0,52.0,15
118.0,26.91185092926,60,0.036,7.87e-09,536000000.0,52.0,15
119.0,26.95902061462,60,0.036,7.87e-09,536000000.0,52.0,15
120.0,27.00619029998,60,0.036,7.87e-09,536000000.0,52.0,15
121.0,27.05335998534,60,0.036,7.87e-09,536000000.0,52.0,15
122.0,27.1005296707,60,0.036,7.87e-09,536000000.0,52.0,15
123.0,27.14769935606,60,0.036,7.87e-09,536000000.0,52.0,15
124.0,27.19486904142,60,0.036,7.87e-09,536000000.0,52.0,15
125.0,27.24203872678,60,0.036,7.87e-09,536000000.0,52.0,15
126.0,27.28920841214,60,0.036,7.87e-09,536000000.0,52.0,15
127.0,27.3363780975,60,0.036,7.87e-09,536000000.0,52.0,15
128.0,27.38294639584,60,0.036,7.87e-09,536000000.0,52.0,15
129.0,27.42951469418,60,0.036,7.87e-09,536000000.0,52.0,15
130.0,27.47608299252,60,0.036,7.87e-09,536000000.0,52.0,15
131.0,27.52265129086,60,0.036,7.87e-09,536000000.0,52.0,15
132.0,27.5692195892,60,0.036,7.87e-09,536000000.0,52.0,15
133.0,27.61578788754,60,0.036,7.87e-09,536000000.0,52.0,15
134.0,27.66235618588,60,0.036,7.87e-09,536000000.0,52.0,15
135.0,27.70892448422,60,0.036,7.87e-09,536000000.0,52.0,15
136.0,27.75549278256,60,0.036,7.87e-09,536000000.0,52.0,15
137.0,27.8020610809,60,0.036,7.87e-09,536000000.0,52.0,15
138.0,27.84801177976,60,0.036,7.87e-09,536000000.0,52.0,15
139.0,27.89396247862,60,0.036,7.87e-09,536000000.0,52.0,15
140.0,27.93991317748,60,0.036,7.87e-09,536000000.0,52.0,15
141.0,27.98586387634,60,0.036,7.87e-09,536000000.0,52.0,15
142.0,28.0318145752,60,0.036,7.87e-09,536000000.0,52.0,15
143.0,28.07776527406,60,0.036,7.87e-09,536000000.0,52.0,15
144.0,28.12371597292,60,0.036,7.87e-09,536000000.0,52.0,15
145.0,28.16966667178,60,0.036,7.87e-09,536000000.0,52.0,15
146.0,28.21561737064,60,0.036,7.87e-09,536000000.0,52.0,15
147.0,28.2615680695,60,0.036,7.87e-09,536000000.0,52.0,15
148.0,28.30689640049,60,0.036,7.87e-09,536000000.0,52.0,15
149.0,28.35222473148,60,0.036,7.87e-09,536000000.0,52.0,15
150.0,28.39755306247,60,0.036,7.87e-09,536000000.0,52.0,15
151.0,28.44288139346,60,0.036,7.87e-09,536000000.0,52.0,15
152.0,28.48820972445,60,0.036,7.87e-09,536000000.0,52.0,15
153.0,28.53353805544,60,0.036,7.87e-09,536000000.0,52.0,15
154.0,28.57886638643,60,0.036,7.87e-09,536000000.0,52.0,15
155.0,28.62419471742,60,0.036,7.87e-09,536000000.0,52.0,15
156.0,28.66952304841,60,0.036,7.87e-09,536000000.0,52.0,15
157.0,28.7148513794,60,0.036,7.87e-09,536000000.0,52.0,15
158.0,28.75955677033,60,0.036,7.87e-09,536000000.0,52.0,15
159.0,28.80426216126,60,0.036,7.87e-09,536000000.0,52.0,15
160.0,28.84896755219,60,0.036,7.87e-09,536000000.0,52.0,15
161.0,28.89367294312,60,0.036,7.87e-09,536000000.0,52.0,15
162.0,28.93837833405,60,0.036,7.87e-09,536000000.0,52.0,15
163.0,28.98308372498,60,0.036,7.87e-09,536000000.0,52.0,15
164.0,29.02778911591,60,0.036,7.87e-09,536000000.0,52.0,15
165.0,29.07249450684,60,0.036,7.87e-09,536000000.0,52.0,15
166.0,29.11719989777,60,0.036,7.87e-09,536000000.0,52.0,15
167.0,29.1619052887,60,0.036,7.87e-09,536000000.0,52.0,15
168.0,29.20599040985,60,0.036,7.87e-09,536000000.0,52.0,15
169.0,29.250075531,60,0.036,7.87e-09,536000000.0,52.0,15
170.0,29.29416065215,60,0.036,7.87e-09,536000000.0,52.0,15
171.0,29.3382457733,60,0.036,7.87e-09,536000000.0,52.0,15
172.0,29.38233089445,60,0.036,7.87e-09,536000000.0,52.0,15
173.0,29.4264160156,60,0.036,7.87e-09,536000000.0,52.0,15
174.0,29.47050113675,60,0.036,7.87e-09,536000000.0,52.0,15
175.0,29.5145862579,60,0.036,7.87e-09,536000000.0,52.0,15
176.0,29.55867137905,60,0.036,7.87e-09,536000000.0,52.0,15
177.0,29.6027565002,60,0.036,7.87e-09,536000000.0,52.0,15
178.0,29.64622573849,60,0.036,7.87e-09,536000000.0,52.0,15
179.0,29.68969497678,60,0.036,7.87e-09,536000000.0,52.0,15
180.0,29.73316421507,60,0.036,7.87e-09,536000000.0,52.0,15
181.0,29.77663345336,60,0.036,7.87e-09,536000000.0,52.0,15
182.0,29.82010269165,60,0.036,7.87e-09,536000000.0,52.0,15
183.0,29.86357192994,60,0.036,7.87e-09,536000000.0,52.0,15
184.0,29.90704116823,60,0.036,7.87e-09,536000000.0,52.0,15
185.0,29.95051040652,60,0.036,7.87e-09,536000000.0,52.0,15
186.0,29.99397964481,60,0.036,7.87e-09,536000000.0,52.0,15
187.0,30.0374488831,60,0.036,7.87e-09,536000000.0,52.0,15
188.0,30.08030796055,60,0.036,7.87e-09,536000000.0,52.0,15
189.0,30.123167038,60,0.036,7.87e-09,536000000.0,52.0,15
190.0,30.16602611545,60,0.036,7.87e-09,536000000.0,52.0,15
191.0,30.2088851929,60,0.036,7.87e-09,536000000.0,52.0,15
192.0,30.25174427035,60,0.036,7.87e-09,536000000.0,52.0,15
193.0,30.2946033478,60,0.036,7.87e-09,536000000.0,52.0,15
194.0,30.33746242525,60,0.036,7.87e-09,536000000.0,52.0,15
195.0,30.3803215027,60,0.036,7.87e-09,536000000.0,52.0,15
196.0,30.42318058015,60,0.036,7.87e-09,536000000.0,52.0,15
197.0,30.4660396576,60,0.036,7.87e-09,536000000.0,52.0,15
198.0,30.50829429627,60,0.036,7.87e-09,536000000.0,52.0,15
199.0,30.55054893494,60,0.036,7.87e-09,536000000.0,52.0,15
200.0,30.59280357361,60,0.036,7.87e-09,536000000.0,52.0,15
201.0,30.63505821228,60,0.036,7.87e-09,536000000.0,52.0,15
202.0,30.67731285095,60,0.036,7.87e-09,536000000.0,52.0,15
203.0,30.71956748962,60,0.036,7.87e-09,536000000.0,52.0,15
204.0,30.76182212829,60,0.036,7.87e-09,536000000.0,52.0,15
205.0,30.80407676696,60,0.036,7.87e-09,536000000.0,52.0,15
206.0,30.84633140563,60,0.036,7.87e-09,536000000.0,52.0,15
207.0,30.8885860443,60,0.036,7.87e-09,536000000.0,52.0,15
208.0,30.93024330138,60,0.036,7.87e-09,536000000.0,52.0,15
209.0,30.97190055846,60,0.036,7.87e-09,536000000.0,52.0,15
210.0,31.01355781554,60,0.036,7.87e-09,536000000.0,52.0,15
211.0,31.05521507262,60,0.036,7.87e-09,536000000.0,52.0,15
212.0,31.0968723297,60,0.036,7.87e-09,536000000.0,52.0,15
213.0,31.13852958678,60,0.036,7.87e-09,536000000.0,52.0,15
214.0,31.18018684386,60,0.036,7.87e-09,536000000.0,52.0,15
215.0,31.22184410094,60,0.036,7.87e-09,536000000.0,52.0,15
216.0,31.26350135802,60,0.036,7.87e-09,536000000.0,52.0,15
217.0,31.3051586151,60,0.036,7.87e-09,536000000.0,52.0,15
218.0,31.34622535704,60,0.036,7.87e-09,536000000.0,52.0,15
219.0,31.38729209898,60,0.036,7.87e-09,536000000.0,52.0,15
220.0,31.42835884092,60,0.036,7.87e-09,536000000.0,52.0,15
221.0,31.46942558286,60,0.036,7.87e-09,536000000.0,52.0,15
222.0,31.5104923248,60,0.036,7.87e-09,536000000.0,52.0,15
223.0,31.55155906674,60,0.036,7.87e-09,536000000.0,52.0,15
224.0,31.59262580868,60,0.036,7.87e-09,536000000.0,52.0,15
225.0,31.63369255062,60,0.036,7.87e-09,536000000.0,52.0,15
226.0,31.67475929256,60,0.036,7.87e-09,536000000.0,52.0,15
227.0,31.7158260345,60,0.036,7.87e-09,536000000.0,52.0,15
228.0,31.7563093185,60,0.036,7.87e-09,536000000.0,52.0,15
229.0,31.7967926025,60,0.036,7.87e-09,536000000.0,52.0,15
230.0,31.8372758865,60,0.036,7.87e-09,536000000.0,52.0,15
231.0,31.8777591705,60,0.036,7.87e-09,536000000.0,52.0,15
232.0,31.9182424545,60,0.036,7.87e-09,536000000.0,52.0,15
233.0,31.9587257385,60,0.036,7.87e-09,536000000.0,52.0,15
234.0,31.9992090225,60,0.036,7.87e-09,536000000.0,52.0,15
235.0,32.0396923065,60,0.036,7.87e-09,536000000.0,52.0,15
236.0,32.0801755905,60,0.036,7.87e-09,536000000.0,52.0,15
237.0,32.1206588745,60,0.036,7.87e-09,536000000.0,52.0,15
238.0,32.16056671142,60,0.036,7.87e-09,536000000.0,52.0,15
239.0,32.20047454834,60,0.036,7.87e-09,536000000.0,52.0,15
240.0,32.24038238526,60,0.036,7.87e-09,536000000.0,52.0,15
241.0,32.28029022218,60,0.036,7.87e-09,536000000.0,52.0,15
242.0,32.3201980591,60,0.036,7.87e-09,536000000.0,52.0,15
243.0,32.36010589602,60,0.036,7.87e-09,536000000.0,52.0,15
244.0,32.40001373294,60,0.036,7.87e-09,536000000.0,52.0,15
245.0,32.43992156986,60,0.036,7.87e-09,536000000.0,52.0,15
246.0,32.47982940678,60,0.036,7.87e-09,536000000.0,52.0,15
247.0,32.5197372437,60,0.036,7.87e-09,536000000.0,52.0,15
248.0,32.55907630925,60,0.036,7.87e-09,536000000.0,52.0,15
249.0,32.5984153748,60,0.036,7.87e-09,536000000.0,52.0,15
250.0,32.63775444035,60,0.036,7.87e-09,536000000.0,52.0,15
251.0,32.6770935059,60,0.036,7.87e-09,536000000.0,52.0,15
252.0,32.71643257145,60,0.036,7.87e-09,536000000.0,52.0,15
253.0,32.755771637,60,0.036,7.87e-09,536000000.0,52.0,15
254.0,32.79511070255,60,0.036,7.87e-09,536000000.0,52.0,15
255.0,32.8344497681,60,0.036,7.87e-09,536000000.0,52.0,15
256.0,32.87378883365,60,0.036,7.87e-09,536000000.0,52.0,15
257.0,32.9131278992,60,0.036,7.87e-09,536000000.0,52.0,15
258.0,32.95190620425,60,0.036,7.87e-09,536000000.0,52.0,15
259.0,32.9906845093,60,0.036,7.87e-09,536000000.0,52.0,15
260.0,33.02946281435,60,0.036,7.87e-09,536000000.0,52.0,15
261.0,33.0682411194,60,0.036,7.87e-09,536000000.0,52.0,15
262.0,33.10701942445,60,0.036,7.87e-09,536000000.0,52.0,15
263.0,33.1457977295,60,0.036,7.87e-09,536000000.0,52.0,15
264.0,33.18457603455,60,0.036,7.87e-09,536000000.0,52.0,15
265.0,33.2233543396,60,0.036,7.87e-09,536000000.0,52.0,15
266.0,33.26213264465,60,0.036,7.87e-09,536000000.0,52.0,15
267.0,33.3009109497,60,0.036,7.87e-09,536000000.0,52.0,15
268.0,33.33913574218,60,0.036,7.87e-09,536000000.0,52.0,15
269.0,33.37736053466,60,0.036,7.87e-09,536000000.0,52.0,15
270.0,33.41558532714,60,0.036,7.87e-09,536000000.0,52.0,15
271.0,33.45381011962,60,0.036,7.87e-09,536000000.0,52.0,15
272.0,33.4920349121,60,0.036,7.87e-09,536000000.0,52.0,15
273.0,33.53025970458,60,0.036,7.87e-09,536000000.0,52.0,15
274.0,33.56848449706,60,0.036,7.87e-09,536000000.0,52.0,15
275.0,33.60670928954,60,0.036,7.87e-09,536000000.0,52.0,15
276.0,33.64493408202,60,0.036,7.87e-09,536000000.0,52.0,15
277.0,33.6831588745,60,0.036,7.87e-09,536000000.0,52.0,15
278.0,33.7208377838,60,0.036,7.87e-09,536000000.0,52.0,15
279.0,33.7585166931,60,0.036,7.87e-09,536000000.0,52.0,15
280.0,33.7961956024,60,0.036,7.87e-09,536000000.0,52.0,15
281.0,33.8338745117,60,0.036,7.87e-09,536000000.0,52.0,15
282.0,33.871553421,60,0.036,7.87e-09,536000000.0,52.0,15
283.0,33.9092323303,60,0.036,7.87e-09,536000000.0,52.0,15
284.0,33.9469112396,60,0.036,7.87e-09,536000000.0,52.0,15
285.0,33.9845901489,60,0.036,7.87e-09,536000000.0,52.0,15
286.0,34.0222690582,60,0.036,7.87e-09,536000000.0,52.0,15
287.0,34.0599479675,60,0.036,7.87e-09,536000000.0,52.0,15
288.0,34.09708900449,60,0.036,7.87e-09,536000000.0,52.0,15
289.0,34.13423004148,60,0.036,7.87e-09,536000000.0,52.0,15
290.0,34.17137107847,60,0.036,7.87e-09,536000000.0,52.0,15
291.0,34.20851211546,60,0.036,7.87e-09,536000000.0,52.0,15
292.0,34.24565315245,60,0.036,7.87e-09,536000000.0,52.0,15
293.0,34.28279418944,60,0.036,7.87e-09,536000000.0,52.0,15
294.0,34.31993522643,60,0.036,7.87e-09,536000000.0,52.0,15
295.0,34.35707626342,60,0.036,7.87e-09,536000000.0,52.0,15
296.0,34.39421730041,60,0.036,7.87e-09,536000000.0,52.0,15
297.0,34.4313583374,60,0.036,7.87e-09,536000000.0,52.0,15
298.0,34.46796798706,60,0.036,7.87e-09,536000000.0,52.0,15
299.0,34.50457763672,60,0.036,7.87e-09,536000000.0,52.0,15
300.0,34.54118728638,60,0.036,7.87e-09,536000000.0,52.0,15
301.0,34.57779693604,60,0.036,7.87e-09,536000000.0,52.0,15
302.0,34.6144065857,60,0.036,7.87e-09,536000000.0,52.0,15
303.0,34.65101623536,60,0.036,7.87e-09,536000000.0,52.0,15
304.0,34.68762588502,60,0.036,7.87e-09,536000000.0,52.0,15
305.0,34.72423553468,60,0.036,7.87e-09,536000000.0,52.0,15
306.0,34.76084518434,60,0.036,7.87e-09,536000000.0,52.0,15
307.0,34.797454834,60,0.036,7.87e-09,536000000.0,52.0,15
308.0,34.83354148866,60,0.036,7.87e-09,536000000.0,52.0,15
309.0,34.86962814332,60,0.036,7.87e-09,536000000.0,52.0,15
310.0,34.90571479798,60,0.036,7.87e-09,536000000.0,52.0,15
311.0,34.94180145264,60,0.036,7.87e-09,536000000.0,52.0,15
312.0,34.9778881073,60,0.036,7.87e-09,536000000.0,52.0,15
313.0,35.01397476196,60,0.036,7.87e-09,536000000.0,52.0,15
314.0,35.05006141662,60,0.036,7.87e-09,536000000.0,52.0,15
315.0,35.08614807128,60,0.036,7.87e-09,536000000.0,52.0,15
316.0,35.12223472594,60,0.036,7.87e-09,536000000.0,52.0,15
317.0,35.1583213806,60,0.036,7.87e-09,536000000.0,52.0,15
318.0,35.19389152525,60,0.036,7.87e-09,536000000.0,52.0,15
319.0,35.2294616699,60,0.036,7.87e-09,536000000.0,52.0,15
320.0,35.26503181455,60,0.036,7.87e-09,536000000.0,52.0,15
321.0,35.3006019592,60,0.036,7.87e-09,536000000.0,52.0,15
322.0,35.33617210385,60,0.036,7.87e-09,536000000.0,52.0,15
323.0,35.3717422485,60,0.036,7.87e-09,536000000.0,52.0,15
324.0,35.40731239315,60,0.036,7.87e-09,536000000.0,52.0,15
325.0,35.4428825378,60,0.036,7.87e-09,536000000.0,52.0,15
326.0,35.47845268245,60,0.036,7.87e-09,536000000.0,52.0,15
327.0,35.5140228271,60,0.036,7.87e-09,536000000.0,52.0,15
328.0,35.54908447261,60,0.036,7.87e-09,536000000.0,52.0,15
329.0,35.58414611812,60,0.036,7.87e-09,536000000.0,52.0,15
330.0,35.61920776363,60,0.036,7.87e-09,536000000.0,52.0,15
331.0,35.65426940914,60,0.036,7.87e-09,536000000.0,52.0,15
332.0,35.68933105465,60,0.036,7.87e-09,536000000.0,52.0,15
333.0,35.72439270016,60,0.036,7.87e-09,536000000.0,52.0,15
334.0,35.75945434567,60,0.036,7.87e-09,536000000.0,52.0,15
335.0,35.79451599118,60,0.036,7.87e-09,536000000.0,52.0,15
336.0,35.82957763669,60,0.036,7.87e-09,536000000.0,52.0,15
