time,T_int,T_ext_1,Film_Coef,Density,Specific_Heat,Thermal_Conductivity,Radius
1.0,21.9862270355,22.88,0.036,7.77e-09,586000000.0,132.0,15
2.0,21.9752254486,23.76,0.036,7.77e-09,586000000.0,132.0,15
3.0,21.9660701752,24.64,0.036,7.77e-09,586000000.0,132.0,15
4.0,21.95916938785,25.52,0.036,7.77e-09,586000000.0,132.0,15
5.0,21.9522686005,26.4,0.036,7.77e-09,586000000.0,132.0,15
6.0,21.9483880997,27.28,0.036,7.77e-09,586000000.0,132.0,15
7.0,21.9445075989,28.16,0.036,7.77e-09,586000000.0,132.0,15
8.0,21.9406270981,29.04,0.036,7.77e-09,586000000.0,132.0,15
9.0,21.9367465973,29.92,0.036,7.77e-09,586000000.0,132.0,15
10.0,21.9377565384,30.8,0.036,7.77e-09,586000000.0,132.0,15
11.0,21.9387664795,31.68,0.036,7.77e-09,586000000.0,132.0,15
12.0,21.9397764206,32.56,0.036,7.77e-09,586000000.0,132.0,15
13.0,21.9407863617,33.44,0.036,7.77e-09,586000000.0,132.0,15
14.0,21.9417963028,34.32,0.036,7.77e-09,586000000.0,132.0,15
15.0,21.9428062439,35.2,0.036,7.77e-09,586000000.0,132.0,15
16.0,21.943816185,36.08,0.036,7.77e-09,586000000.0,132.0,15
17.0,21.9448261261,36.96,0.036,7.77e-09,586000000.0,132.0,15
18.0,21.95157051087,37.84,0.036,7.77e-09,586000000.0,132.0,15
19.0,21.95831489564,38.72,0.036,7.77e-09,586000000.0,132.0,15
20.0,21.96505928041,39.6,0.036,7.77e-09,586000000.0,132.0,15
21.0,21.97180366518,40.48,0.036,7.77e-09,586000000.0,132.0,15
22.0,21.97854804995,41.36,0.036,7.77e-09,586000000.0,132.0,15
23.0,21.98529243472,42.24,0.036,7.77e-09,586000000.0,132.0,15
24.0,21.99203681949,43.12,0.036,7.77e-09,586000000.0,132.0,15
25.0,21.99878120426,44.0,0.036,7.77e-09,586000000.0,132.0,15
26.0,22.00552558903,44.88,0.036,7.77e-09,586000000.0,132.0,15
27.0,22.0122699738,45.76,0.036,7.77e-09,586000000.0,132.0,15
28.0,22.02465534214,46.64,0.036,7.77e-09,586000000.0,132.0,15
29.0,22.03704071048,47.52,0.036,7.77e-09,586000000.0,132.0,15
30.0,22.04942607882,48.4,0.036,7.77e-09,586000000.0,132.0,15
31.0,22.06181144716,49.28,0.036,7.77e-09,586000000.0,132.0,15
32.0,22.0741968155,50.16,0.036,7.77e-09,586000000.0,132.0,15
33.0,22.08658218384,51.04,0.036,7.77e-09,586000000.0,132.0,15
34.0,22.09896755218,51.92,0.036,7.77e-09,586000000.0,132.0,15
35.0,22.11135292052,52.8,0.036,7.77e-09,586000000.0,132.0,15
36.0,22.12373828886,53.68,0.036,7.77e-09,586000000.0,132.0,15
37.0,22.1361236572,54.56,0.036,7.77e-09,586000000.0,132.0,15
38.0,22.15412197111,55.44,0.036,7.77e-09,586000000.0,132.0,15
39.0,22.17212028502,56.32,0.036,7.77e-09,586000000.0,132.0,15
40.0,22.19011859893,57.2,0.036,7.77e-09,586000000.0,132.0,15
41.0,22.20811691284,58.08,0.036,7.77e-09,586000000.0,132.0,15
42.0,22.22611522675,58.96,0.036,7.77e-09,586000000.0,132.0,15
43.0,22.24411354066,59.84,0.036,7.77e-09,586000000.0,132.0,15
44.0,22.26211185457,60.72,0.036,7.77e-09,586000000.0,132.0,15
45.0,22.28011016848,61.6,0.036,7.77e-09,586000000.0,132.0,15
46.0,22.29810848239,62.48,0.036,7.77e-09,586000000.0,132.0,15
47.0,22.3161067963,63.36,0.036,7.77e-09,586000000.0,132.0,15
48.0,22.33481693271,64.24,0.036,7.77e-09,586000000.0,132.0,15
49.0,22.35352706912,65.12,0.036,7.77e-09,586000000.0,132.0,15
50.0,22.37223720553,66.0,0.036,7.77e-09,586000000.0,132.0,15
51.0,22.39094734194,62.94,0.036,7.77e-09,586000000.0,132.0,15
52.0,22.40965747835,62.88,0.036,7.77e-09,586000000.0,132.0,15
53.0,22.42836761476,62.82,0.036,7.77e-09,586000000.0,132.0,15
54.0,22.44707775117,62.76,0.036,7.77e-09,586000000.0,132.0,15
55.0,22.46578788758,62.7,0.036,7.77e-09,586000000.0,132.0,15
56.0,22.48449802399,62.64,0.036,7.77e-09,586000000.0,132.0,15
57.0,22.5032081604,62.58,0.036,7.77e-09,586000000.0,132.0,15
58.0,22.52101020813,62.52,0.036,7.77e-09,586000000.0,132.0,15
59.0,22.53881225586,62.46,0.036,7.77e-09,586000000.0,132.0,15
60.0,22.55661430359,62.4,0.036,7.77e-09,586000000.0,132.0,15
61.0,22.57441635132,62.34,0.036,7.77e-09,586000000.0,132.0,15
62.0,22.59221839905,62.28,0.036,7.77e-09,586000000.0,132.0,15
63.0,22.61002044678,62.22,0.036,7.77e-09,586000000.0,132.0,15
64.0,22.62782249451,62.16,0.036,7.77e-09,586000000.0,132.0,15
65.0,22.64562454224,62.1,0.036,7.77e-09,586000000.0,132.0,15
66.0,22.66342658997,62.04,0.036,7.77e-09,586000000.0,132.0,15
67.0,22.6812286377,61.98,0.036,7.77e-09,586000000.0,132.0,15
68.0,22.69840812684,61.92,0.036,7.77e-09,586000000.0,132.0,15
69.0,22.71558761598,61.86,0.036,7.77e-09,586000000.0,132.0,15
70.0,22.73276710512,61.8,0.036,7.77e-09,586000000.0,132.0,15
71.0,22.74994659426,61.74,0.036,7.77e-09,586000000.0,132.0,15
72.0,22.7671260834,61.68,0.036,7.77e-09,586000000.0,132.0,15
73.0,22.78430557254,61.62,0.036,7.77e-09,586000000.0,132.0,15
74.0,22.80148506168,61.56,0.036,7.77e-09,586000000.0,132.0,15
75.0,22.81866455082,61.5,0.036,7.77e-09,586000000.0,132.0,15
76.0,22.83584403996,61.44,0.036,7.77e-09,586000000.0,132.0,15
77.0,22.8530235291,61.38,0.036,7.77e-09,586000000.0,132.0,15
78.0,22.86962776188,61.32,0.036,7.77e-09,586000000.0,132.0,15
79.0,22.88623199466,61.26,0.036,7.77e-09,586000000.0,132.0,15
80.0,22.90283622744,61.2,0.036,7.77e-09,586000000.0,132.0,15
81.0,22.91944046022,61.14,0.036,7.77e-09,586000000.0,132.0,15
82.0,22.936044693,61.08,0.036,7.77e-09,586000000.0,132.0,15
83.0,22.95264892578,61.02,0.036,7.77e-09,586000000.0,132.0,15
84.0,22.96925315856,60.96,0.036,7.77e-09,586000000.0,132.0,15
85.0,22.98585739134,60.9,0.036,7.77e-09,586000000.0,132.0,15
86.0,23.00246162412,60.84,0.036,7.77e-09,586000000.0,132.0,15
87.0,23.0190658569,60.78,0.036,7.77e-09,586000000.0,132.0,15
88.0,23.03509979245,60.72,0.036,7.77e-09,586000000.0,132.0,15
89.0,23.051133728,60.66,0.036,7.77e-09,586000000.0,132.0,15
90.0,23.06716766355,60.6,0.036,7.77e-09,586000000.0,132.0,15
91.0,23.0832015991,60.54,0.036,7.77e-09,586000000.0,132.0,15
92.0,23.09923553465,60.48,0.036,7.77e-09,586000000.0,132.0,15
93.0,23.1152694702,60.42,0.036,7.77e-09,586000000.0,132.0,15
94.0,23.13130340575,60.36,0.036,7.77e-09,586000000.0,132.0,15
95.0,23.1473373413,60.3,0.036,7.77e-09,586000000.0,132.0,15
96.0,23.16337127685,60.24,0.036,7.77e-09,586000000.0,132.0,15
97.0,23.1794052124,60.18,0.036,7.77e-09,586000000.0,132.0,15
98.0,23.19527378082,60.12,0.036,7.77e-09,586000000.0,132.0,15
99.0,23.21114234924,60.06,0.036,7.77e-09,586000000.0,132.0,15
100.0,23.22701091766,60.0,0.036,7.77e-09,586000000.0,132.0,15
101.0,23.24287948608,60,0.036,7.77e-09,586000000.0,132.0,15
102.0,23.2587480545,60,0.036,7.77e-09,586000000.0,132.0,15
103.0,23.27461662292,60,0.036,7.77e-09,586000000.0,132.0,15
104.0,23.29048519134,60,0.036,7.77e-09,586000000.0,132.0,15
105.0,23.30635375976,60,0.036,7.77e-09,586000000.0,132.0,15
106.0,23.32222232818,60,0.036,7.77e-09,586000000.0,132.0,15
107.0,23.3380908966,60,0.036,7.77e-09,586000000.0,132.0,15
108.0,23.35392532348,60,0.036,7.77e-09,586000000.0,132.0,15
109.0,23.36975975036,60,0.036,7.77e-09,586000000.0,132.0,15
110.0,23.38559417724,60,0.036,7.77e-09,586000000.0,132.0,15
111.0,23.40142860412,60,0.036,7.77e-09,586000000.0,132.0,15
112.0,23.417263031,60,0.036,7.77e-09,586000000.0,132.0,15
113.0,23.43309745788,60,0.036,7.77e-09,586000000.0,132.0,15
114.0,23.44893188476,60,0.036,7.77e-09,586000000.0,132.0,15
115.0,23.46476631164,60,0.036,7.77e-09,586000000.0,132.0,15
116.0,23.48060073852,60,0.036,7.77e-09,586000000.0,132.0,15
117.0,23.4964351654,60,0.036,7.77e-09,586000000.0,132.0,15
118.0,23.51220932006,60,0.036,7.77e-09,586000000.0,132.0,15
119.0,23.52798347472,60,0.036,7.77e-09,586000000.0,132.0,15
120.0,23.54375762938,60,0.036,7.77e-09,586000000.0,132.0,15
121.0,23.55953178404,60,0.036,7.77e-09,586000000.0,132.0,15
122.0,23.5753059387,60,0.036,7.77e-09,586000000.0,132.0,15
123.0,23.59108009336,60,0.036,7.77e-09,586000000.0,132.0,15
124.0,23.60685424802,60,0.036,7.77e-09,586000000.0,132.0,15
125.0,23.62262840268,60,0.036,7.77e-09,586000000.0,132.0,15
126.0,23.63840255734,60,0.036,7.77e-09,586000000.0,132.0,15
127.0,23.654176712,60,0.036,7.77e-09,586000000.0,132.0,15
128.0,23.6698848724,60,0.036,7.77e-09,586000000.0,132.0,15
129.0,23.6855930328,60,0.036,7.77e-09,586000000.0,132.0,15
130.0,23.7013011932,60,0.036,7.77e-09,586000000.0,132.0,15
131.0,23.7170093536,60,0.036,7.77e-09,586000000.0,132.0,15
132.0,23.732717514,60,0.036,7.77e-09,586000000.0,132.0,15
133.0,23.7484256744,60,0.036,7.77e-09,586000000.0,132.0,15
134.0,23.7641338348,60,0.036,7.77e-09,586000000.0,132.0,15
135.0,23.7798419952,60,0.036,7.77e-09,586000000.0,132.0,15
136.0,23.7955501556,60,0.036,7.77e-09,586000000.0,132.0,15
137.0,23.811258316,60,0.036,7.77e-09,586000000.0,132.0,15
138.0,23.82689933773,60,0.036,7.77e-09,586000000.0,132.0,15
139.0,23.84254035946,60,0.036,7.77e-09,586000000.0,132.0,15
140.0,23.85818138119,60,0.036,7.77e-09,586000000.0,132.0,15
141.0,23.87382240292,60,0.036,7.77e-09,586000000.0,132.0,15
142.0,23.88946342465,60,0.036,7.77e-09,586000000.0,132.0,15
143.0,23.90510444638,60,0.036,7.77e-09,586000000.0,132.0,15
144.0,23.92074546811,60,0.036,7.77e-09,586000000.0,132.0,15
145.0,23.93638648984,60,0.036,7.77e-09,586000000.0,132.0,15
146.0,23.95202751157,60,0.036,7.77e-09,586000000.0,132.0,15
147.0,23.9676685333,60,0.036,7.77e-09,586000000.0,132.0,15
148.0,23.98324222562,60,0.036,7.77e-09,586000000.0,132.0,15
149.0,23.99881591794,60,0.036,7.77e-09,586000000.0,132.0,15
150.0,24.01438961026,60,0.036,7.77e-09,586000000.0,132.0,15
151.0,24.02996330258,60,0.036,7.77e-09,586000000.0,132.0,15
152.0,24.0455369949,60,0.036,7.77e-09,586000000.0,132.0,15
153.0,24.06111068722,60,0.036,7.77e-09,586000000.0,132.0,15
154.0,24.07668437954,60,0.036,7.77e-09,586000000.0,132.0,15
155.0,24.09225807186,60,0.036,7.77e-09,586000000.0,132.0,15
156.0,24.10783176418,60,0.036,7.77e-09,586000000.0,132.0,15
157.0,24.1234054565,60,0.036,7.77e-09,586000000.0,132.0,15
158.0,24.13891181942,60,0.036,7.77e-09,586000000.0,132.0,15
159.0,24.15441818234,60,0.036,7.77e-09,586000000.0,132.0,15
160.0,24.16992454526,60,0.036,7.77e-09,586000000.0,132.0,15
161.0,24.18543090818,60,0.036,7.77e-09,586000000.0,132.0,15
162.0,24.2009372711,60,0.036,7.77e-09,586000000.0,132.0,15
163.0,24.21644363402,60,0.036,7.77e-09,586000000.0,132.0,15
164.0,24.23194999694,60,0.036,7.77e-09,586000000.0,132.0,15
165.0,24.24745635986,60,0.036,7.77e-09,586000000.0,132.0,15
166.0,24.26296272278,60,0.036,7.77e-09,586000000.0,132.0,15
167.0,24.2784690857,60,0.036,7.77e-09,586000000.0,132.0,15
168.0,24.29390850068,60,0.036,7.77e-09,586000000.0,132.0,15
169.0,24.30934791566,60,0.036,7.77e-09,586000000.0,132.0,15
170.0,24.32478733064,60,0.036,7.77e-09,586000000.0,132.0,15
171.0,24.34022674562,60,0.036,7.77e-09,586000000.0,132.0,15
172.0,24.3556661606,60,0.036,7.77e-09,586000000.0,132.0,15
173.0,24.37110557558,60,0.036,7.77e-09,586000000.0,132.0,15
174.0,24.38654499056,60,0.036,7.77e-09,586000000.0,132.0,15
175.0,24.40198440554,60,0.036,7.77e-09,586000000.0,132.0,15
176.0,24.41742382052,60,0.036,7.77e-09,586000000.0,132.0,15
177.0,24.4328632355,60,0.036,7.77e-09,586000000.0,132.0,15
178.0,24.44823608401,60,0.036,7.77e-09,586000000.0,132.0,15
179.0,24.46360893252,60,0.036,7.77e-09,586000000.0,132.0,15
180.0,24.47898178103,60,0.036,7.77e-09,586000000.0,132.0,15
181.0,24.49435462954,60,0.036,7.77e-09,586000000.0,132.0,15
182.0,24.50972747805,60,0.036,7.77e-09,586000000.0,132.0,15
183.0,24.52510032656,60,0.036,7.77e-09,586000000.0,132.0,15
184.0,24.54047317507,60,0.036,7.77e-09,586000000.0,132.0,15
185.0,24.55584602358,60,0.036,7.77e-09,586000000.0,132.0,15
186.0,24.57121887209,60,0.036,7.77e-09,586000000.0,132.0,15
187.0,24.5865917206,60,0.036,7.77e-09,586000000.0,132.0,15
188.0,24.60189800264,60,0.036,7.77e-09,586000000.0,132.0,15
189.0,24.61720428468,60,0.036,7.77e-09,586000000.0,132.0,15
190.0,24.63251056672,60,0.036,7.77e-09,586000000.0,132.0,15
191.0,24.64781684876,60,0.036,7.77e-09,586000000.0,132.0,15
192.0,24.6631231308,60,0.036,7.77e-09,586000000.0,132.0,15
193.0,24.67842941284,60,0.036,7.77e-09,586000000.0,132.0,15
194.0,24.69373569488,60,0.036,7.77e-09,586000000.0,132.0,15
195.0,24.70904197692,60,0.036,7.77e-09,586000000.0,132.0,15
196.0,24.72434825896,60,0.036,7.77e-09,586000000.0,132.0,15
197.0,24.739654541,60,0.036,7.77e-09,586000000.0,132.0,15
198.0,24.75489463805,60,0.036,7.77e-09,586000000.0,132.0,15
199.0,24.7701347351,60,0.036,7.77e-09,586000000.0,132.0,15
200.0,24.78537483215,60,0.036,7.77e-09,586000000.0,132.0,15
201.0,24.8006149292,60,0.036,7.77e-09,586000000.0,132.0,15
202.0,24.81585502625,60,0.036,7.77e-09,586000000.0,132.0,15
203.0,24.8310951233,60,0.036,7.77e-09,586000000.0,132.0,15
204.0,24.84633522035,60,0.036,7.77e-09,586000000.0,132.0,15
205.0,24.8615753174,60,0.036,7.77e-09,586000000.0,132.0,15
206.0,24.87681541445,60,0.036,7.77e-09,586000000.0,132.0,15
207.0,24.8920555115,60,0.036,7.77e-09,586000000.0,132.0,15
208.0,24.90722980502,60,0.036,7.77e-09,586000000.0,132.0,15
209.0,24.92240409854,60,0.036,7.77e-09,586000000.0,132.0,15
210.0,24.93757839206,60,0.036,7.77e-09,586000000.0,132.0,15
211.0,24.95275268558,60,0.036,7.77e-09,586000000.0,132.0,15
212.0,24.9679269791,60,0.036,7.77e-09,586000000.0,132.0,15
213.0,24.98310127262,60,0.036,7.77e-09,586000000.0,132.0,15
214.0,24.99827556614,60,0.036,7.77e-09,586000000.0,132.0,15
215.0,25.01344985966,60,0.036,7.77e-09,586000000.0,132.0,15
216.0,25.02862415318,60,0.036,7.77e-09,586000000.0,132.0,15
217.0,25.0437984467,60,0.036,7.77e-09,586000000.0,132.0,15
218.0,25.05890712742,60,0.036,7.77e-09,586000000.0,132.0,15
219.0,25.07401580814,60,0.036,7.77e-09,586000000.0,132.0,15
220.0,25.08912448886,60,0.036,7.77e-09,586000000.0,132.0,15
221.0,25.10423316958,60,0.036,7.77e-09,586000000.0,132.0,15
222.0,25.1193418503,60,0.036,7.77e-09,586000000.0,132.0,15
223.0,25.13445053102,60,0.036,7.77e-09,586000000.0,132.0,15
224.0,25.14955921174,60,0.036,7.77e-09,586000000.0,132.0,15
225.0,25.16466789246,60,0.036,7.77e-09,586000000.0,132.0,15
226.0,25.17977657318,60,0.036,7.77e-09,586000000.0,132.0,15
227.0,25.1948852539,60,0.036,7.77e-09,586000000.0,132.0,15
228.0,25.20992851257,60,0.036,7.77e-09,586000000.0,132.0,15
229.0,25.22497177124,60,0.036,7.77e-09,586000000.0,132.0,15
230.0,25.24001502991,60,0.036,7.77e-09,586000000.0,132.0,15
231.0,25.25505828858,60,0.036,7.77e-09,586000000.0,132.0,15
232.0,25.27010154725,60,0.036,7.77e-09,586000000.0,132.0,15
233.0,25.28514480592,60,0.036,7.77e-09,586000000.0,132.0,15
234.0,25.30018806459,60,0.036,7.77e-09,586000000.0,132.0,15
235.0,25.31523132326,60,0.036,7.77e-09,586000000.0,132.0,15
236.0,25.33027458193,60,0.036,7.77e-09,586000000.0,132.0,15
237.0,25.3453178406,60,0.036,7.77e-09,586000000.0,132.0,15
238.0,25.36029624941,60,0.036,7.77e-09,586000000.0,132.0,15
239.0,25.37527465822,60,0.036,7.77e-09,586000000.0,132.0,15
240.0,25.39025306703,60,0.036,7.77e-09,586000000.0,132.0,15
241.0,25.40523147584,60,0.036,7.77e-09,586000000.0,132.0,15
242.0,25.42020988465,60,0.036,7.77e-09,586000000.0,132.0,15
243.0,25.43518829346,60,0.036,7.77e-09,586000000.0,132.0,15
244.0,25.45016670227,60,0.036,7.77e-09,586000000.0,132.0,15
245.0,25.46514511108,60,0.036,7.77e-09,586000000.0,132.0,15
246.0,25.48012351989,60,0.036,7.77e-09,586000000.0,132.0,15
247.0,25.4951019287,60,0.036,7.77e-09,586000000.0,132.0,15
248.0,25.51001548766,60,0.036,7.77e-09,586000000.0,132.0,15
249.0,25.52492904662,60,0.036,7.77e-09,586000000.0,132.0,15
250.0,25.53984260558,60,0.036,7.77e-09,586000000.0,132.0,15
251.0,25.55475616454,60,0.036,7.77e-09,586000000.0,132.0,15
252.0,25.5696697235,60,0.036,7.77e-09,586000000.0,132.0,15
253.0,25.58458328246,60,0.036,7.77e-09,586000000.0,132.0,15
254.0,25.59949684142,60,0.036,7.77e-09,586000000.0,132.0,15
255.0,25.61441040038,60,0.036,7.77e-09,586000000.0,132.0,15
256.0,25.62932395934,60,0.036,7.77e-09,586000000.0,132.0,15
257.0,25.6442375183,60,0.036,7.77e-09,586000000.0,132.0,15
258.0,25.65908660888,60,0.036,7.77e-09,586000000.0,132.0,15
259.0,25.67393569946,60,0.036,7.77e-09,586000000.0,132.0,15
260.0,25.68878479004,60,0.036,7.77e-09,586000000.0,132.0,15
261.0,25.70363388062,60,0.036,7.77e-09,586000000.0,132.0,15
262.0,25.7184829712,60,0.036,7.77e-09,586000000.0,132.0,15
263.0,25.73333206178,60,0.036,7.77e-09,586000000.0,132.0,15
264.0,25.74818115236,60,0.036,7.77e-09,586000000.0,132.0,15
265.0,25.76303024294,60,0.036,7.77e-09,586000000.0,132.0,15
266.0,25.77787933352,60,0.036,7.77e-09,586000000.0,132.0,15
267.0,25.7927284241,60,0.036,7.77e-09,586000000.0,132.0,15
268.0,25.80751342776,60,0.036,7.77e-09,586000000.0,132.0,15
269.0,25.82229843142,60,0.036,7.77e-09,586000000.0,132.0,15
270.0,25.83708343508,60,0.036,7.77e-09,586000000.0,132.0,15
271.0,25.85186843874,60,0.036,7.77e-09,586000000.0,132.0,15
272.0,25.8666534424,60,0.036,7.77e-09,586000000.0,132.0,15
273.0,25.88143844606,60,0.036,7.77e-09,586000000.0,132.0,15
274.0,25.89622344972,60,0.036,7.77e-09,586000000.0,132.0,15
275.0,25.91100845338,60,0.036,7.77e-09,586000000.0,132.0,15
276.0,25.92579345704,60,0.036,7.77e-09,586000000.0,132.0,15
277.0,25.9405784607,60,0.036,7.77e-09,586000000.0,132.0,15
278.0,25.95529956818,60,0.036,7.77e-09,586000000.0,132.0,15
279.0,25.97002067566,60,0.036,7.77e-09,586000000.0,132.0,15
280.0,25.98474178314,60,0.036,7.77e-09,586000000.0,132.0,15
281.0,25.99946289062,60,0.036,7.77e-09,586000000.0,132.0,15
282.0,26.0141839981,60,0.036,7.77e-09,586000000.0,132.0,15
283.0,26.02890510558,60,0.036,7.77e-09,586000000.0,132.0,15
284.0,26.04362621306,60,0.036,7.77e-09,586000000.0,132.0,15
285.0,26.05834732054,60,0.036,7.77e-09,586000000.0,132.0,15
286.0,26.07306842802,60,0.036,7.77e-09,586000000.0,132.0,15
287.0,26.0877895355,60,0.036,7.77e-09,586000000.0,132.0,15
288.0,26.10244693754,60,0.036,7.77e-09,586000000.0,132.0,15
289.0,26.11710433958,60,0.036,7.77e-09,586000000.0,132.0,15
290.0,26.13176174162,60,0.036,7.77e-09,586000000.0,132.0,15
291.0,26.14641914366,60,0.036,7.77e-09,586000000.0,132.0,15
292.0,26.1610765457,60,0.036,7.77e-09,586000000.0,132.0,15
293.0,26.17573394774,60,0.036,7.77e-09,586000000.0,132.0,15
294.0,26.19039134978,60,0.036,7.77e-09,586000000.0,132.0,15
295.0,26.20504875182,60,0.036,7.77e-09,586000000.0,132.0,15
296.0,26.21970615386,60,0.036,7.77e-09,586000000.0,132.0,15
297.0,26.2343635559,60,0.036,7.77e-09,586000000.0,132.0,15
298.0,26.24895763396,60,0.036,7.77e-09,586000000.0,132.0,15
299.0,26.26355171202,60,0.036,7.77e-09,586000000.0,132.0,15
300.0,26.27814579008,60,0.036,7.77e-09,586000000.0,132.0,15
301.0,26.29273986814,60,0.036,7.77e-09,586000000.0,132.0,15
302.0,26.3073339462,60,0.036,7.77e-09,586000000.0,132.0,15
303.0,26.32192802426,60,0.036,7.77e-09,586000000.0,132.0,15
304.0,26.33652210232,60,0.036,7.77e-09,586000000.0,132.0,15
305.0,26.35111618038,60,0.036,7.77e-09,586000000.0,132.0,15
306.0,26.36571025844,60,0.036,7.77e-09,586000000.0,132.0,15
307.0,26.3803043365,60,0.036,7.77e-09,586000000.0,132.0,15
308.0,26.39483547206,60,0.036,7.77e-09,586000000.0,132.0,15
309.0,26.40936660762,60,0.036,7.77e-09,586000000.0,132.0,15
310.0,26.42389774318,60,0.036,7.77e-09,586000000.0,132.0,15
311.0,26.43842887874,60,0.036,7.77e-09,586000000.0,132.0,15
312.0,26.4529600143,60,0.036,7.77e-09,586000000.0,132.0,15
313.0,26.46749114986,60,0.036,7.77e-09,586000000.0,132.0,15
314.0,26.48202228542,60,0.036,7.77e-09,586000000.0,132.0,15
315.0,26.49655342098,60,0.036,7.77e-09,586000000.0,132.0,15
316.0,26.51108455654,60,0.036,7.77e-09,586000000.0,132.0,15
317.0,26.5256156921,60,0.036,7.77e-09,586000000.0,132.0,15
318.0,26.54008388516,60,0.036,7.77e-09,586000000.0,132.0,15
319.0,26.55455207822,60,0.036,7.77e-09,586000000.0,132.0,15
320.0,26.56902027128,60,0.036,7.77e-09,586000000.0,132.0,15
321.0,26.58348846434,60,0.036,7.77e-09,586000000.0,132.0,15
322.0,26.5979566574,60,0.036,7.77e-09,586000000.0,132.0,15
323.0,26.61242485046,60,0.036,7.77e-09,586000000.0,132.0,15
324.0,26.62689304352,60,0.036,7.77e-09,586000000.0,132.0,15
325.0,26.64136123658,60,0.036,7.77e-09,586000000.0,132.0,15
326.0,26.65582942964,60,0.036,7.77e-09,586000000.0,132.0,15
327.0,26.6702976227,60,0.036,7.77e-09,586000000.0,132.0,15
328.0,26.68470325472,60,0.036,7.77e-09,586000000.0,132.0,15
329.0,26.69910888674,60,0.036,7.77e-09,586000000.0,132.0,15
330.0,26.71351451876,60,0.036,7.77e-09,586000000.0,132.0,15
