time,T_int,T_ext_1,Film_Coef,Density,Specific_Heat,Thermal_Conductivity,Radius
1.0,21.9715423584,22.88,0.036,7.47e-09,186000000.0,112.0,25
2.0,21.9492454529,23.76,0.036,7.47e-09,186000000.0,112.0,25
3.0,21.9304027557,24.64,0.036,7.47e-09,186000000.0,112.0,25
4.0,21.91560173035,25.52,0.036,7.47e-09,186000000.0,112.0,25
5.0,21.900800705,26.4,0.036,7.47e-09,186000000.0,112.0,25
6.0,21.8918833733,27.28,0.036,7.47e-09,186000000.0,112.0,25
7.0,21.8829660416,28.16,0.036,7.47e-09,186000000.0,112.0,25
8.0,21.8740487099,29.04,0.036,7.47e-09,186000000.0,112.0,25
9.0,21.8651313782,29.92,0.036,7.47e-09,186000000.0,112.0,25
10.0,21.866703033475,30.8,0.036,7.47e-09,186000000.0,112.0,25
11.0,21.86827468875,31.68,0.036,7.47e-09,186000000.0,112.0,25
12.0,21.869846344025,32.56,0.036,7.47e-09,186000000.0,112.0,25
13.0,21.8714179993,33.44,0.036,7.47e-09,186000000.0,112.0,25
14.0,21.872989654575,34.32,0.036,7.47e-09,186000000.0,112.0,25
15.0,21.87456130985,35.2,0.036,7.47e-09,186000000.0,112.0,25
16.0,21.876132965125,36.08,0.036,7.47e-09,186000000.0,112.0,25
17.0,21.8777046204,36.96,0.036,7.47e-09,186000000.0,112.0,25
18.0,21.89207744602,37.84,0.036,7.47e-09,186000000.0,112.0,25
19.0,21.90645027164,38.72,0.036,7.47e-09,186000000.0,112.0,25
20.0,21.92082309726,39.6,0.036,7.47e-09,186000000.0,112.0,25
21.0,21.93519592288,40.48,0.036,7.47e-09,186000000.0,112.0,25
22.0,21.9495687485,41.36,0.036,7.47e-09,186000000.0,112.0,25
23.0,21.96394157412,42.24,0.036,7.47e-09,186000000.0,112.0,25
24.0,21.97831439974,43.12,0.036,7.47e-09,186000000.0,112.0,25
25.0,21.99268722536,44.0,0.036,7.47e-09,186000000.0,112.0,25
26.0,22.00706005098,44.88,0.036,7.47e-09,186000000.0,112.0,25
27.0,22.0214328766,45.76,0.036,7.47e-09,186000000.0,112.0,25
28.0,22.04850521089,46.64,0.036,7.47e-09,186000000.0,112.0,25
29.0,22.07557754518,47.52,0.036,7.47e-09,186000000.0,112.0,25
30.0,22.10264987947,48.4,0.036,7.47e-09,186000000.0,112.0,25
31.0,22.12972221376,49.28,0.036,7.47e-09,186000000.0,112.0,25
32.0,22.15679454805,50.16,0.036,7.47e-09,186000000.0,112.0,25
33.0,22.18386688234,51.04,0.036,7.47e-09,186000000.0,112.0,25
34.0,22.21093921663,51.92,0.036,7.47e-09,186000000.0,112.0,25
35.0,22.23801155092,52.8,0.036,7.47e-09,186000000.0,112.0,25
36.0,22.26508388521,53.68,0.036,7.47e-09,186000000.0,112.0,25
37.0,22.2921562195,54.56,0.036,7.47e-09,186000000.0,112.0,25
38.0,22.33183403017,55.44,0.036,7.47e-09,186000000.0,112.0,25
39.0,22.37151184084,56.32,0.036,7.47e-09,186000000.0,112.0,25
40.0,22.41118965151,57.2,0.036,7.47e-09,186000000.0,112.0,25
41.0,22.45086746218,58.08,0.036,7.47e-09,186000000.0,112.0,25
42.0,22.49054527285,58.96,0.036,7.47e-09,186000000.0,112.0,25
43.0,22.53022308352,59.84,0.036,7.47e-09,186000000.0,112.0,25
44.0,22.56990089419,60.72,0.036,7.47e-09,186000000.0,112.0,25
45.0,22.60957870486,61.6,0.036,7.47e-09,186000000.0,112.0,25
46.0,22.64925651553,62.48,0.036,7.47e-09,186000000.0,112.0,25
47.0,22.6889343262,63.36,0.036,7.47e-09,186000000.0,112.0,25
48.0,22.73060722354,64.24,0.036,7.47e-09,186000000.0,112.0,25
49.0,22.77228012088,65.12,0.036,7.47e-09,186000000.0,112.0,25
50.0,22.81395301822,66.0,0.036,7.47e-09,186000000.0,112.0,25
51.0,22.85562591556,62.94,0.036,7.47e-09,186000000.0,112.0,25
52.0,22.8972988129,62.88,0.036,7.47e-09,186000000.0,112.0,25
53.0,22.93897171024,62.82,0.036,7.47e-09,186000000.0,112.0,25
54.0,22.98064460758,62.76,0.036,7.47e-09,186000000.0,112.0,25
55.0,23.02231750492,62.7,0.036,7.47e-09,186000000.0,112.0,25
56.0,23.06399040226,62.64,0.036,7.47e-09,186000000.0,112.0,25
57.0,23.1056632996,62.58,0.036,7.47e-09,186000000.0,112.0,25
58.0,23.14545440677,62.52,0.036,7.47e-09,186000000.0,112.0,25
59.0,23.18524551394,62.46,0.036,7.47e-09,186000000.0,112.0,25
60.0,23.22503662111,62.4,0.036,7.47e-09,186000000.0,112.0,25
61.0,23.26482772828,62.34,0.036,7.47e-09,186000000.0,112.0,25
62.0,23.30461883545,62.28,0.036,7.47e-09,186000000.0,112.0,25
63.0,23.34440994262,62.22,0.036,7.47e-09,186000000.0,112.0,25
64.0,23.38420104979,62.16,0.036,7.47e-09,186000000.0,112.0,25
65.0,23.42399215696,62.1,0.036,7.47e-09,186000000.0,112.0,25
66.0,23.46378326413,62.04,0.036,7.47e-09,186000000.0,112.0,25
67.0,23.5035743713,61.98,0.036,7.47e-09,186000000.0,112.0,25
68.0,23.5418216705,61.92,0.036,7.47e-09,186000000.0,112.0,25
69.0,23.5800689697,61.86,0.036,7.47e-09,186000000.0,112.0,25
70.0,23.6183162689,61.8,0.036,7.47e-09,186000000.0,112.0,25
71.0,23.6565635681,61.74,0.036,7.47e-09,186000000.0,112.0,25
72.0,23.6948108673,61.68,0.036,7.47e-09,186000000.0,112.0,25
73.0,23.7330581665,61.62,0.036,7.47e-09,186000000.0,112.0,25
74.0,23.7713054657,61.56,0.036,7.47e-09,186000000.0,112.0,25
75.0,23.8095527649,61.5,0.036,7.47e-09,186000000.0,112.0,25
76.0,23.8478000641,61.44,0.036,7.47e-09,186000000.0,112.0,25
77.0,23.8860473633,61.38,0.036,7.47e-09,186000000.0,112.0,25
78.0,23.92277641298,61.32,0.036,7.47e-09,186000000.0,112.0,25
79.0,23.95950546266,61.26,0.036,7.47e-09,186000000.0,112.0,25
80.0,23.99623451234,61.2,0.036,7.47e-09,186000000.0,112.0,25
81.0,24.03296356202,61.14,0.036,7.47e-09,186000000.0,112.0,25
82.0,24.0696926117,61.08,0.036,7.47e-09,186000000.0,112.0,25
83.0,24.10642166138,61.02,0.036,7.47e-09,186000000.0,112.0,25
84.0,24.14315071106,60.96,0.036,7.47e-09,186000000.0,112.0,25
85.0,24.17987976074,60.9,0.036,7.47e-09,186000000.0,112.0,25
86.0,24.21660881042,60.84,0.036,7.47e-09,186000000.0,112.0,25
87.0,24.2533378601,60.78,0.036,7.47e-09,186000000.0,112.0,25
88.0,24.28855171203,60.72,0.036,7.47e-09,186000000.0,112.0,25
89.0,24.32376556396,60.66,0.036,7.47e-09,186000000.0,112.0,25
90.0,24.35897941589,60.6,0.036,7.47e-09,186000000.0,112.0,25
91.0,24.39419326782,60.54,0.036,7.47e-09,186000000.0,112.0,25
92.0,24.42940711975,60.48,0.036,7.47e-09,186000000.0,112.0,25
93.0,24.46462097168,60.42,0.036,7.47e-09,186000000.0,112.0,25
94.0,24.49983482361,60.36,0.036,7.47e-09,186000000.0,112.0,25
95.0,24.53504867554,60.3,0.036,7.47e-09,186000000.0,112.0,25
96.0,24.57026252747,60.24,0.036,7.47e-09,186000000.0,112.0,25
97.0,24.6054763794,60.18,0.036,7.47e-09,186000000.0,112.0,25
98.0,24.64005661011,60.12,0.036,7.47e-09,186000000.0,112.0,25
99.0,24.67463684082,60.06,0.036,7.47e-09,186000000.0,112.0,25
100.0,24.70921707153,60.0,0.036,7.47e-09,186000000.0,112.0,25
101.0,24.74379730224,60,0.036,7.47e-09,186000000.0,112.0,25
102.0,24.77837753295,60,0.036,7.47e-09,186000000.0,112.0,25
103.0,24.81295776366,60,0.036,7.47e-09,186000000.0,112.0,25
104.0,24.84753799437,60,0.036,7.47e-09,186000000.0,112.0,25
105.0,24.88211822508,60,0.036,7.47e-09,186000000.0,112.0,25
106.0,24.91669845579,60,0.036,7.47e-09,186000000.0,112.0,25
107.0,24.9512786865,60,0.036,7.47e-09,186000000.0,112.0,25
108.0,24.98554954527,60,0.036,7.47e-09,186000000.0,112.0,25
109.0,25.01982040404,60,0.036,7.47e-09,186000000.0,112.0,25
110.0,25.05409126281,60,0.036,7.47e-09,186000000.0,112.0,25
111.0,25.08836212158,60,0.036,7.47e-09,186000000.0,112.0,25
112.0,25.12263298035,60,0.036,7.47e-09,186000000.0,112.0,25
113.0,25.15690383912,60,0.036,7.47e-09,186000000.0,112.0,25
114.0,25.19117469789,60,0.036,7.47e-09,186000000.0,112.0,25
115.0,25.22544555666,60,0.036,7.47e-09,186000000.0,112.0,25
116.0,25.25971641543,60,0.036,7.47e-09,186000000.0,112.0,25
117.0,25.2939872742,60,0.036,7.47e-09,186000000.0,112.0,25
118.0,25.32792320254,60,0.036,7.47e-09,186000000.0,112.0,25
119.0,25.36185913088,60,0.036,7.47e-09,186000000.0,112.0,25
120.0,25.39579505922,60,0.036,7.47e-09,186000000.0,112.0,25
121.0,25.42973098756,60,0.036,7.47e-09,186000000.0,112.0,25
122.0,25.4636669159,60,0.036,7.47e-09,186000000.0,112.0,25
123.0,25.49760284424,60,0.036,7.47e-09,186000000.0,112.0,25
124.0,25.53153877258,60,0.036,7.47e-09,186000000.0,112.0,25
125.0,25.56547470092,60,0.036,7.47e-09,186000000.0,112.0,25
126.0,25.59941062926,60,0.036,7.47e-09,186000000.0,112.0,25
127.0,25.6333465576,60,0.036,7.47e-09,186000000.0,112.0,25
128.0,25.66694889067,60,0.036,7.47e-09,186000000.0,112.0,25
129.0,25.70055122374,60,0.036,7.47e-09,186000000.0,112.0,25
130.0,25.73415355681,60,0.036,7.47e-09,186000000.0,112.0,25
131.0,25.76775588988,60,0.036,7.47e-09,186000000.0,112.0,25
132.0,25.80135822295,60,0.036,7.47e-09,186000000.0,112.0,25
133.0,25.83496055602,60,0.036,7.47e-09,186000000.0,112.0,25
134.0,25.86856288909,60,0.036,7.47e-09,186000000.0,112.0,25
135.0,25.90216522216,60,0.036,7.47e-09,186000000.0,112.0,25
136.0,25.93576755523,60,0.036,7.47e-09,186000000.0,112.0,25
137.0,25.9693698883,60,0.036,7.47e-09,186000000.0,112.0,25
138.0,26.00264282226,60,0.036,7.47e-09,186000000.0,112.0,25
139.0,26.03591575622,60,0.036,7.47e-09,186000000.0,112.0,25
140.0,26.06918869018,60,0.036,7.47e-09,186000000.0,112.0,25
141.0,26.10246162414,60,0.036,7.47e-09,186000000.0,112.0,25
142.0,26.1357345581,60,0.036,7.47e-09,186000000.0,112.0,25
143.0,26.16900749206,60,0.036,7.47e-09,186000000.0,112.0,25
144.0,26.20228042602,60,0.036,7.47e-09,186000000.0,112.0,25
145.0,26.23555335998,60,0.036,7.47e-09,186000000.0,112.0,25
146.0,26.26882629394,60,0.036,7.47e-09,186000000.0,112.0,25
147.0,26.3020992279,60,0.036,7.47e-09,186000000.0,112.0,25
148.0,26.33504619598,60,0.036,7.47e-09,186000000.0,112.0,25
149.0,26.36799316406,60,0.036,7.47e-09,186000000.0,112.0,25
150.0,26.40094013214,60,0.036,7.47e-09,186000000.0,112.0,25
151.0,26.43388710022,60,0.036,7.47e-09,186000000.0,112.0,25
152.0,26.4668340683,60,0.036,7.47e-09,186000000.0,112.0,25
153.0,26.49978103638,60,0.036,7.47e-09,186000000.0,112.0,25
154.0,26.53272800446,60,0.036,7.47e-09,186000000.0,112.0,25
155.0,26.56567497254,60,0.036,7.47e-09,186000000.0,112.0,25
156.0,26.59862194062,60,0.036,7.47e-09,186000000.0,112.0,25
157.0,26.6315689087,60,0.036,7.47e-09,186000000.0,112.0,25
158.0,26.66419353486,60,0.036,7.47e-09,186000000.0,112.0,25
159.0,26.69681816102,60,0.036,7.47e-09,186000000.0,112.0,25
160.0,26.72944278718,60,0.036,7.47e-09,186000000.0,112.0,25
161.0,26.76206741334,60,0.036,7.47e-09,186000000.0,112.0,25
162.0,26.7946920395,60,0.036,7.47e-09,186000000.0,112.0,25
163.0,26.82731666566,60,0.036,7.47e-09,186000000.0,112.0,25
164.0,26.85994129182,60,0.036,7.47e-09,186000000.0,112.0,25
165.0,26.89256591798,60,0.036,7.47e-09,186000000.0,112.0,25
166.0,26.92519054414,60,0.036,7.47e-09,186000000.0,112.0,25
167.0,26.9578151703,60,0.036,7.47e-09,186000000.0,112.0,25
168.0,26.99012069703,60,0.036,7.47e-09,186000000.0,112.0,25
169.0,27.02242622376,60,0.036,7.47e-09,186000000.0,112.0,25
170.0,27.05473175049,60,0.036,7.47e-09,186000000.0,112.0,25
171.0,27.08703727722,60,0.036,7.47e-09,186000000.0,112.0,25
172.0,27.11934280395,60,0.036,7.47e-09,186000000.0,112.0,25
173.0,27.15164833068,60,0.036,7.47e-09,186000000.0,112.0,25
174.0,27.18395385741,60,0.036,7.47e-09,186000000.0,112.0,25
175.0,27.21625938414,60,0.036,7.47e-09,186000000.0,112.0,25
176.0,27.24856491087,60,0.036,7.47e-09,186000000.0,112.0,25
177.0,27.2808704376,60,0.036,7.47e-09,186000000.0,112.0,25
178.0,27.3128601074,60,0.036,7.47e-09,186000000.0,112.0,25
179.0,27.3448497772,60,0.036,7.47e-09,186000000.0,112.0,25
180.0,27.376839447,60,0.036,7.47e-09,186000000.0,112.0,25
181.0,27.4088291168,60,0.036,7.47e-09,186000000.0,112.0,25
182.0,27.4408187866,60,0.036,7.47e-09,186000000.0,112.0,25
183.0,27.4728084564,60,0.036,7.47e-09,186000000.0,112.0,25
184.0,27.5047981262,60,0.036,7.47e-09,186000000.0,112.0,25
185.0,27.536787796,60,0.036,7.47e-09,186000000.0,112.0,25
186.0,27.5687774658,60,0.036,7.47e-09,186000000.0,112.0,25
187.0,27.6007671356,60,0.036,7.47e-09,186000000.0,112.0,25
188.0,27.63244400023,60,0.036,7.47e-09,186000000.0,112.0,25
189.0,27.66412086486,60,0.036,7.47e-09,186000000.0,112.0,25
190.0,27.69579772949,60,0.036,7.47e-09,186000000.0,112.0,25
191.0,27.72747459412,60,0.036,7.47e-09,186000000.0,112.0,25
192.0,27.75915145875,60,0.036,7.47e-09,186000000.0,112.0,25
193.0,27.79082832338,60,0.036,7.47e-09,186000000.0,112.0,25
194.0,27.82250518801,60,0.036,7.47e-09,186000000.0,112.0,25
195.0,27.85418205264,60,0.036,7.47e-09,186000000.0,112.0,25
196.0,27.88585891727,60,0.036,7.47e-09,186000000.0,112.0,25
197.0,27.9175357819,60,0.036,7.47e-09,186000000.0,112.0,25
198.0,27.9489028931,60,0.036,7.47e-09,186000000.0,112.0,25
199.0,27.9802700043,60,0.036,7.47e-09,186000000.0,112.0,25
200.0,28.0116371155,60,0.036,7.47e-09,186000000.0,112.0,25
201.0,28.0430042267,60,0.036,7.47e-09,186000000.0,112.0,25
202.0,28.0743713379,60,0.036,7.47e-09,186000000.0,112.0,25
203.0,28.1057384491,60,0.036,7.47e-09,186000000.0,112.0,25
204.0,28.1371055603,60,0.036,7.47e-09,186000000.0,112.0,25
205.0,28.1684726715,60,0.036,7.47e-09,186000000.0,112.0,25
206.0,28.1998397827,60,0.036,7.47e-09,186000000.0,112.0,25
207.0,28.2312068939,60,0.036,7.47e-09,186000000.0,112.0,25
208.0,28.26226730345,60,0.036,7.47e-09,186000000.0,112.0,25
209.0,28.293327713,60,0.036,7.47e-09,186000000.0,112.0,25
210.0,28.32438812255,60,0.036,7.47e-09,186000000.0,112.0,25
211.0,28.3554485321,60,0.036,7.47e-09,186000000.0,112.0,25
212.0,28.38650894165,60,0.036,7.47e-09,186000000.0,112.0,25
213.0,28.4175693512,60,0.036,7.47e-09,186000000.0,112.0,25
214.0,28.44862976075,60,0.036,7.47e-09,186000000.0,112.0,25
215.0,28.4796901703,60,0.036,7.47e-09,186000000.0,112.0,25
216.0,28.51075057985,60,0.036,7.47e-09,186000000.0,112.0,25
217.0,28.5418109894,60,0.036,7.47e-09,186000000.0,112.0,25
218.0,28.57256774904,60,0.036,7.47e-09,186000000.0,112.0,25
219.0,28.60332450868,60,0.036,7.47e-09,186000000.0,112.0,25
220.0,28.63408126832,60,0.036,7.47e-09,186000000.0,112.0,25
221.0,28.66483802796,60,0.036,7.47e-09,186000000.0,112.0,25
222.0,28.6955947876,60,0.036,7.47e-09,186000000.0,112.0,25
223.0,28.72635154724,60,0.036,7.47e-09,186000000.0,112.0,25
224.0,28.75710830688,60,0.036,7.47e-09,186000000.0,112.0,25
225.0,28.78786506652,60,0.036,7.47e-09,186000000.0,112.0,25
226.0,28.81862182616,60,0.036,7.47e-09,186000000.0,112.0,25
227.0,28.8493785858,60,0.036,7.47e-09,186000000.0,112.0,25
228.0,28.87983455657,60,0.036,7.47e-09,186000000.0,112.0,25
229.0,28.91029052734,60,0.036,7.47e-09,186000000.0,112.0,25
230.0,28.94074649811,60,0.036,7.47e-09,186000000.0,112.0,25
231.0,28.97120246888,60,0.036,7.47e-09,186000000.0,112.0,25
232.0,29.00165843965,60,0.036,7.47e-09,186000000.0,112.0,25
233.0,29.03211441042,60,0.036,7.47e-09,186000000.0,112.0,25
234.0,29.06257038119,60,0.036,7.47e-09,186000000.0,112.0,25
235.0,29.09302635196,60,0.036,7.47e-09,186000000.0,112.0,25
236.0,29.12348232273,60,0.036,7.47e-09,186000000.0,112.0,25
237.0,29.1539382935,60,0.036,7.47e-09,186000000.0,112.0,25
238.0,29.18409671787,60,0.036,7.47e-09,186000000.0,112.0,25
239.0,29.21425514224,60,0.036,7.47e-09,186000000.0,112.0,25
240.0,29.24441356661,60,0.036,7.47e-09,186000000.0,112.0,25
241.0,29.27457199098,60,0.036,7.47e-09,186000000.0,112.0,25
242.0,29.30473041535,60,0.036,7.47e-09,186000000.0,112.0,25
243.0,29.33488883972,60,0.036,7.47e-09,186000000.0,112.0,25
244.0,29.36504726409,60,0.036,7.47e-09,186000000.0,112.0,25
245.0,29.39520568846,60,0.036,7.47e-09,186000000.0,112.0,25
246.0,29.42536411283,60,0.036,7.47e-09,186000000.0,112.0,25
247.0,29.4555225372,60,0.036,7.47e-09,186000000.0,112.0,25
248.0,29.48538589475,60,0.036,7.47e-09,186000000.0,112.0,25
249.0,29.5152492523,60,0.036,7.47e-09,186000000.0,112.0,25
250.0,29.54511260985,60,0.036,7.47e-09,186000000.0,112.0,25
251.0,29.5749759674,60,0.036,7.47e-09,186000000.0,112.0,25
252.0,29.60483932495,60,0.036,7.47e-09,186000000.0,112.0,25
253.0,29.6347026825,60,0.036,7.47e-09,186000000.0,112.0,25
254.0,29.66456604005,60,0.036,7.47e-09,186000000.0,112.0,25
255.0,29.6944293976,60,0.036,7.47e-09,186000000.0,112.0,25
256.0,29.72429275515,60,0.036,7.47e-09,186000000.0,112.0,25
257.0,29.7541561127,60,0.036,7.47e-09,186000000.0,112.0,25
258.0,29.78372745517,60,0.036,7.47e-09,186000000.0,112.0,25
259.0,29.81329879764,60,0.036,7.47e-09,186000000.0,112.0,25
260.0,29.84287014011,60,0.036,7.47e-09,186000000.0,112.0,25
261.0,29.87244148258,60,0.036,7.47e-09,186000000.0,112.0,25
262.0,29.90201282505,60,0.036,7.47e-09,186000000.0,112.0,25
263.0,29.93158416752,60,0.036,7.47e-09,186000000.0,112.0,25
264.0,29.96115550999,60,0.036,7.47e-09,186000000.0,112.0,25
265.0,29.99072685246,60,0.036,7.47e-09,186000000.0,112.0,25
266.0,30.02029819493,60,0.036,7.47e-09,186000000.0,112.0,25
267.0,30.0498695374,60,0.036,7.47e-09,186000000.0,112.0,25
268.0,30.07915191655,60,0.036,7.47e-09,186000000.0,112.0,25
269.0,30.1084342957,60,0.036,7.47e-09,186000000.0,112.0,25
270.0,30.13771667485,60,0.036,7.47e-09,186000000.0,112.0,25
271.0,30.166999054,60,0.036,7.47e-09,186000000.0,112.0,25
272.0,30.19628143315,60,0.036,7.47e-09,186000000.0,112.0,25
273.0,30.2255638123,60,0.036,7.47e-09,186000000.0,112.0,25
274.0,30.25484619145,60,0.036,7.47e-09,186000000.0,112.0,25
275.0,30.2841285706,60,0.036,7.47e-09,186000000.0,112.0,25
276.0,30.31341094975,60,0.036,7.47e-09,186000000.0,112.0,25
277.0,30.3426933289,60,0.036,7.47e-09,186000000.0,112.0,25
278.0,30.37168941502,60,0.036,7.47e-09,186000000.0,112.0,25
279.0,30.40068550114,60,0.036,7.47e-09,186000000.0,112.0,25
280.0,30.42968158726,60,0.036,7.47e-09,186000000.0,112.0,25
281.0,30.45867767338,60,0.036,7.47e-09,186000000.0,112.0,25
282.0,30.4876737595,60,0.036,7.47e-09,186000000.0,112.0,25
283.0,30.51666984562,60,0.036,7.47e-09,186000000.0,112.0,25
284.0,30.54566593174,60,0.036,7.47e-09,186000000.0,112.0,25
285.0,30.57466201786,60,0.036,7.47e-09,186000000.0,112.0,25
286.0,30.60365810398,60,0.036,7.47e-09,186000000.0,112.0,25
287.0,30.6326541901,60,0.036,7.47e-09,186000000.0,112.0,25
288.0,30.66136665348,60,0.036,7.47e-09,186000000.0,112.0,25
289.0,30.69007911686,60,0.036,7.47e-09,186000000.0,112.0,25
290.0,30.71879158024,60,0.036,7.47e-09,186000000.0,112.0,25
291.0,30.74750404362,60,0.036,7.47e-09,186000000.0,112.0,25
292.0,30.776216507,60,0.036,7.47e-09,186000000.0,112.0,25
293.0,30.80492897038,60,0.036,7.47e-09,186000000.0,112.0,25
294.0,30.83364143376,60,0.036,7.47e-09,186000000.0,112.0,25
295.0,30.86235389714,60,0.036,7.47e-09,186000000.0,112.0,25
296.0,30.89106636052,60,0.036,7.47e-09,186000000.0,112.0,25
297.0,30.9197788239,60,0.036,7.47e-09,186000000.0,112.0,25
298.0,30.94821052556,60,0.036,7.47e-09,186000000.0,112.0,25
299.0,30.97664222722,60,0.036,7.47e-09,186000000.0,112.0,25
300.0,31.00507392888,60,0.036,7.47e-09,186000000.0,112.0,25
301.0,31.03350563054,60,0.036,7.47e-09,186000000.0,112.0,25
302.0,31.0619373322,60,0.036,7.47e-09,186000000.0,112.0,25
303.0,31.09036903386,60,0.036,7.47e-09,186000000.0,112.0,25
304.0,31.11880073552,60,0.036,7.47e-09,186000000.0,112.0,25
305.0,31.14723243718,60,0.036,7.47e-09,186000000.0,112.0,25
306.0,31.17566413884,60,0.036,7.47e-09,186000000.0,112.0,25
307.0,31.2040958405,60,0.036,7.47e-09,186000000.0,112.0,25
308.0,31.23224983219,60,0.036,7.47e-09,186000000.0,112.0,25
309.0,31.26040382388,60,0.036,7.47e-09,186000000.0,112.0,25
310.0,31.28855781557,60,0.036,7.47e-09,186000000.0,112.0,25
311.0,31.31671180726,60,0.036,7.47e-09,186000000.0,112.0,25
312.0,31.34486579895,60,0.036,7.47e-09,186000000.0,112.0,25
313.0,31.37301979064,60,0.036,7.47e-09,186000000.0,112.0,25
314.0,31.40117378233,60,0.036,7.47e-09,186000000.0,112.0,25
315.0,31.42932777402,60,0.036,7.47e-09,186000000.0,112.0,25
316.0,31.45748176571,60,0.036,7.47e-09,186000000.0,112.0,25
317.0,31.4856357574,60,0.036,7.47e-09,186000000.0,112.0,25
318.0,31.51351413723,60,0.036,7.47e-09,186000000.0,112.0,25
319.0,31.54139251706,60,0.036,7.47e-09,186000000.0,112.0,25
320.0,31.56927089689,60,0.036,7.47e-09,186000000.0,112.0,25
321.0,31.59714927672,60,0.036,7.47e-09,186000000.0,112.0,25
322.0,31.62502765655,60,0.036,7.47e-09,186000000.0,112.0,25
323.0,31.65290603638,60,0.036,7.47e-09,186000000.0,112.0,25
324.0,31.68078441621,60,0.036,7.47e-09,186000000.0,112.0,25
325.0,31.70866279604,60,0.036,7.47e-09,186000000.0,112.0,25
326.0,31.73654117587,60,0.036,7.47e-09,186000000.0,112.0,25
327.0,31.7644195557,60,0.036,7.47e-09,186000000.0,112.0,25
328.0,31.79202575687,60,0.036,7.47e-09,186000000.0,112.0,25
329.0,31.81963195804,60,0.036,7.47e-09,186000000.0,112.0,25
330.0,31.84723815921,60,0.036,7.47e-09,186000000.0,112.0,25
