time,T_int,T_ext_1,Film_Coef,Density,Specific_Heat,Thermal_Conductivity,Radius
1.0,21.9743938446,22.88,0.036,7.37e-09,236000000.0,112.0,25
2.0,21.9543018341,23.76,0.036,7.37e-09,236000000.0,112.0,25
3.0,21.9373989105,24.64,0.036,7.37e-09,236000000.0,112.0,25
4.0,21.9242324829,25.52,0.036,7.37e-09,236000000.0,112.0,25
5.0,21.9110660553,26.4,0.036,7.37e-09,236000000.0,112.0,25
6.0,21.903228759775,27.28,0.036,7.37e-09,236000000.0,112.0,25
7.0,21.89539146425,28.16,0.036,7.37e-09,236000000.0,112.0,25
8.0,21.887554168725,29.04,0.036,7.37e-09,236000000.0,112.0,25
9.0,21.8797168732,29.92,0.036,7.37e-09,236000000.0,112.0,25
10.0,21.8812088966625,30.8,0.036,7.37e-09,236000000.0,112.0,25
11.0,21.882700920125,31.68,0.036,7.37e-09,236000000.0,112.0,25
12.0,21.8841929435875,32.56,0.036,7.37e-09,236000000.0,112.0,25
13.0,21.88568496705,33.44,0.036,7.37e-09,236000000.0,112.0,25
14.0,21.8871769905125,34.32,0.036,7.37e-09,236000000.0,112.0,25
15.0,21.888669013975,35.2,0.036,7.37e-09,236000000.0,112.0,25
16.0,21.8901610374375,36.08,0.036,7.37e-09,236000000.0,112.0,25
17.0,21.8916530609,36.96,0.036,7.37e-09,236000000.0,112.0,25
18.0,21.90446853637,37.84,0.036,7.37e-09,236000000.0,112.0,25
19.0,21.91728401184,38.72,0.036,7.37e-09,236000000.0,112.0,25
20.0,21.93009948731,39.6,0.036,7.37e-09,236000000.0,112.0,25
21.0,21.94291496278,40.48,0.036,7.37e-09,236000000.0,112.0,25
22.0,21.95573043825,41.36,0.036,7.37e-09,236000000.0,112.0,25
23.0,21.96854591372,42.24,0.036,7.37e-09,236000000.0,112.0,25
24.0,21.98136138919,43.12,0.036,7.37e-09,236000000.0,112.0,25
25.0,21.99417686466,44.0,0.036,7.37e-09,236000000.0,112.0,25
26.0,22.00699234013,44.88,0.036,7.37e-09,236000000.0,112.0,25
27.0,22.0198078156,45.76,0.036,7.37e-09,236000000.0,112.0,25
28.0,22.04385395054,46.64,0.036,7.37e-09,236000000.0,112.0,25
29.0,22.06790008548,47.52,0.036,7.37e-09,236000000.0,112.0,25
30.0,22.09194622042,48.4,0.036,7.37e-09,236000000.0,112.0,25
31.0,22.11599235536,49.28,0.036,7.37e-09,236000000.0,112.0,25
32.0,22.1400384903,50.16,0.036,7.37e-09,236000000.0,112.0,25
33.0,22.16408462524,51.04,0.036,7.37e-09,236000000.0,112.0,25
34.0,22.18813076018,51.92,0.036,7.37e-09,236000000.0,112.0,25
35.0,22.21217689512,52.8,0.036,7.37e-09,236000000.0,112.0,25
36.0,22.23622303006,53.68,0.036,7.37e-09,236000000.0,112.0,25
37.0,22.260269165,54.56,0.036,7.37e-09,236000000.0,112.0,25
38.0,22.29547595974,55.44,0.036,7.37e-09,236000000.0,112.0,25
39.0,22.33068275448,56.32,0.036,7.37e-09,236000000.0,112.0,25
40.0,22.36588954922,57.2,0.036,7.37e-09,236000000.0,112.0,25
41.0,22.40109634396,58.08,0.036,7.37e-09,236000000.0,112.0,25
42.0,22.4363031387,58.96,0.036,7.37e-09,236000000.0,112.0,25
43.0,22.47150993344,59.84,0.036,7.37e-09,236000000.0,112.0,25
44.0,22.50671672818,60.72,0.036,7.37e-09,236000000.0,112.0,25
45.0,22.54192352292,61.6,0.036,7.37e-09,236000000.0,112.0,25
46.0,22.57713031766,62.48,0.036,7.37e-09,236000000.0,112.0,25
47.0,22.6123371124,63.36,0.036,7.37e-09,236000000.0,112.0,25
48.0,22.64926643369,64.24,0.036,7.37e-09,236000000.0,112.0,25
49.0,22.68619575498,65.12,0.036,7.37e-09,236000000.0,112.0,25
50.0,22.72312507627,66.0,0.036,7.37e-09,236000000.0,112.0,25
51.0,22.76005439756,62.94,0.036,7.37e-09,236000000.0,112.0,25
52.0,22.79698371885,62.88,0.036,7.37e-09,236000000.0,112.0,25
53.0,22.83391304014,62.82,0.036,7.37e-09,236000000.0,112.0,25
54.0,22.87084236143,62.76,0.036,7.37e-09,236000000.0,112.0,25
55.0,22.90777168272,62.7,0.036,7.37e-09,236000000.0,112.0,25
56.0,22.94470100401,62.64,0.036,7.37e-09,236000000.0,112.0,25
57.0,22.9816303253,62.58,0.036,7.37e-09,236000000.0,112.0,25
58.0,23.01689128874,62.52,0.036,7.37e-09,236000000.0,112.0,25
59.0,23.05215225218,62.46,0.036,7.37e-09,236000000.0,112.0,25
60.0,23.08741321562,62.4,0.036,7.37e-09,236000000.0,112.0,25
61.0,23.12267417906,62.34,0.036,7.37e-09,236000000.0,112.0,25
62.0,23.1579351425,62.28,0.036,7.37e-09,236000000.0,112.0,25
63.0,23.19319610594,62.22,0.036,7.37e-09,236000000.0,112.0,25
64.0,23.22845706938,62.16,0.036,7.37e-09,236000000.0,112.0,25
65.0,23.26371803282,62.1,0.036,7.37e-09,236000000.0,112.0,25
66.0,23.29897899626,62.04,0.036,7.37e-09,236000000.0,112.0,25
67.0,23.3342399597,61.98,0.036,7.37e-09,236000000.0,112.0,25
68.0,23.36817131041,61.92,0.036,7.37e-09,236000000.0,112.0,25
69.0,23.40210266112,61.86,0.036,7.37e-09,236000000.0,112.0,25
70.0,23.43603401183,61.8,0.036,7.37e-09,236000000.0,112.0,25
71.0,23.46996536254,61.74,0.036,7.37e-09,236000000.0,112.0,25
72.0,23.50389671325,61.68,0.036,7.37e-09,236000000.0,112.0,25
73.0,23.53782806396,61.62,0.036,7.37e-09,236000000.0,112.0,25
74.0,23.57175941467,61.56,0.036,7.37e-09,236000000.0,112.0,25
75.0,23.60569076538,61.5,0.036,7.37e-09,236000000.0,112.0,25
76.0,23.63962211609,61.44,0.036,7.37e-09,236000000.0,112.0,25
77.0,23.6735534668,61.38,0.036,7.37e-09,236000000.0,112.0,25
78.0,23.70618457794,61.32,0.036,7.37e-09,236000000.0,112.0,25
79.0,23.73881568908,61.26,0.036,7.37e-09,236000000.0,112.0,25
80.0,23.77144680022,61.2,0.036,7.37e-09,236000000.0,112.0,25
81.0,23.80407791136,61.14,0.036,7.37e-09,236000000.0,112.0,25
82.0,23.8367090225,61.08,0.036,7.37e-09,236000000.0,112.0,25
83.0,23.86934013364,61.02,0.036,7.37e-09,236000000.0,112.0,25
84.0,23.90197124478,60.96,0.036,7.37e-09,236000000.0,112.0,25
85.0,23.93460235592,60.9,0.036,7.37e-09,236000000.0,112.0,25
86.0,23.96723346706,60.84,0.036,7.37e-09,236000000.0,112.0,25
87.0,23.9998645782,60.78,0.036,7.37e-09,236000000.0,112.0,25
88.0,24.03119583126,60.72,0.036,7.37e-09,236000000.0,112.0,25
89.0,24.06252708432,60.66,0.036,7.37e-09,236000000.0,112.0,25
90.0,24.09385833738,60.6,0.036,7.37e-09,236000000.0,112.0,25
91.0,24.12518959044,60.54,0.036,7.37e-09,236000000.0,112.0,25
92.0,24.1565208435,60.48,0.036,7.37e-09,236000000.0,112.0,25
93.0,24.18785209656,60.42,0.036,7.37e-09,236000000.0,112.0,25
94.0,24.21918334962,60.36,0.036,7.37e-09,236000000.0,112.0,25
95.0,24.25051460268,60.3,0.036,7.37e-09,236000000.0,112.0,25
96.0,24.28184585574,60.24,0.036,7.37e-09,236000000.0,112.0,25
97.0,24.3131771088,60.18,0.036,7.37e-09,236000000.0,112.0,25
98.0,24.3439910889,60.12,0.036,7.37e-09,236000000.0,112.0,25
99.0,24.374805069,60.06,0.036,7.37e-09,236000000.0,112.0,25
100.0,24.4056190491,60.0,0.036,7.37e-09,236000000.0,112.0,25
101.0,24.4364330292,60,0.036,7.37e-09,236000000.0,112.0,25
102.0,24.4672470093,60,0.036,7.37e-09,236000000.0,112.0,25
103.0,24.4980609894,60,0.036,7.37e-09,236000000.0,112.0,25
104.0,24.5288749695,60,0.036,7.37e-09,236000000.0,112.0,25
105.0,24.5596889496,60,0.036,7.37e-09,236000000.0,112.0,25
106.0,24.5905029297,60,0.036,7.37e-09,236000000.0,112.0,25
107.0,24.6213169098,60,0.036,7.37e-09,236000000.0,112.0,25
108.0,24.65189514161,60,0.036,7.37e-09,236000000.0,112.0,25
109.0,24.68247337342,60,0.036,7.37e-09,236000000.0,112.0,25
110.0,24.71305160523,60,0.036,7.37e-09,236000000.0,112.0,25
111.0,24.74362983704,60,0.036,7.37e-09,236000000.0,112.0,25
112.0,24.77420806885,60,0.036,7.37e-09,236000000.0,112.0,25
113.0,24.80478630066,60,0.036,7.37e-09,236000000.0,112.0,25
114.0,24.83536453247,60,0.036,7.37e-09,236000000.0,112.0,25
115.0,24.86594276428,60,0.036,7.37e-09,236000000.0,112.0,25
116.0,24.89652099609,60,0.036,7.37e-09,236000000.0,112.0,25
117.0,24.9270992279,60,0.036,7.37e-09,236000000.0,112.0,25
118.0,24.95741462707,60,0.036,7.37e-09,236000000.0,112.0,25
119.0,24.98773002624,60,0.036,7.37e-09,236000000.0,112.0,25
120.0,25.01804542541,60,0.036,7.37e-09,236000000.0,112.0,25
121.0,25.04836082458,60,0.036,7.37e-09,236000000.0,112.0,25
122.0,25.07867622375,60,0.036,7.37e-09,236000000.0,112.0,25
123.0,25.10899162292,60,0.036,7.37e-09,236000000.0,112.0,25
124.0,25.13930702209,60,0.036,7.37e-09,236000000.0,112.0,25
125.0,25.16962242126,60,0.036,7.37e-09,236000000.0,112.0,25
126.0,25.19993782043,60,0.036,7.37e-09,236000000.0,112.0,25
127.0,25.2302532196,60,0.036,7.37e-09,236000000.0,112.0,25
128.0,25.26030521392,60,0.036,7.37e-09,236000000.0,112.0,25
129.0,25.29035720824,60,0.036,7.37e-09,236000000.0,112.0,25
130.0,25.32040920256,60,0.036,7.37e-09,236000000.0,112.0,25
131.0,25.35046119688,60,0.036,7.37e-09,236000000.0,112.0,25
132.0,25.3805131912,60,0.036,7.37e-09,236000000.0,112.0,25
133.0,25.41056518552,60,0.036,7.37e-09,236000000.0,112.0,25
134.0,25.44061717984,60,0.036,7.37e-09,236000000.0,112.0,25
135.0,25.47066917416,60,0.036,7.37e-09,236000000.0,112.0,25
136.0,25.50072116848,60,0.036,7.37e-09,236000000.0,112.0,25
137.0,25.5307731628,60,0.036,7.37e-09,236000000.0,112.0,25
138.0,25.56056442257,60,0.036,7.37e-09,236000000.0,112.0,25
139.0,25.59035568234,60,0.036,7.37e-09,236000000.0,112.0,25
140.0,25.62014694211,60,0.036,7.37e-09,236000000.0,112.0,25
141.0,25.64993820188,60,0.036,7.37e-09,236000000.0,112.0,25
142.0,25.67972946165,60,0.036,7.37e-09,236000000.0,112.0,25
143.0,25.70952072142,60,0.036,7.37e-09,236000000.0,112.0,25
144.0,25.73931198119,60,0.036,7.37e-09,236000000.0,112.0,25
145.0,25.76910324096,60,0.036,7.37e-09,236000000.0,112.0,25
146.0,25.79889450073,60,0.036,7.37e-09,236000000.0,112.0,25
147.0,25.8286857605,60,0.036,7.37e-09,236000000.0,112.0,25
148.0,25.858218956,60,0.036,7.37e-09,236000000.0,112.0,25
149.0,25.8877521515,60,0.036,7.37e-09,236000000.0,112.0,25
150.0,25.917285347,60,0.036,7.37e-09,236000000.0,112.0,25
151.0,25.9468185425,60,0.036,7.37e-09,236000000.0,112.0,25
152.0,25.976351738,60,0.036,7.37e-09,236000000.0,112.0,25
153.0,26.0058849335,60,0.036,7.37e-09,236000000.0,112.0,25
154.0,26.035418129,60,0.036,7.37e-09,236000000.0,112.0,25
155.0,26.0649513245,60,0.036,7.37e-09,236000000.0,112.0,25
156.0,26.09448452,60,0.036,7.37e-09,236000000.0,112.0,25
157.0,26.1240177155,60,0.036,7.37e-09,236000000.0,112.0,25
158.0,26.15329532627,60,0.036,7.37e-09,236000000.0,112.0,25
159.0,26.18257293704,60,0.036,7.37e-09,236000000.0,112.0,25
160.0,26.21185054781,60,0.036,7.37e-09,236000000.0,112.0,25
161.0,26.24112815858,60,0.036,7.37e-09,236000000.0,112.0,25
162.0,26.27040576935,60,0.036,7.37e-09,236000000.0,112.0,25
163.0,26.29968338012,60,0.036,7.37e-09,236000000.0,112.0,25
164.0,26.32896099089,60,0.036,7.37e-09,236000000.0,112.0,25
165.0,26.35823860166,60,0.036,7.37e-09,236000000.0,112.0,25
166.0,26.38751621243,60,0.036,7.37e-09,236000000.0,112.0,25
167.0,26.4167938232,60,0.036,7.37e-09,236000000.0,112.0,25
168.0,26.44581832882,60,0.036,7.37e-09,236000000.0,112.0,25
169.0,26.47484283444,60,0.036,7.37e-09,236000000.0,112.0,25
170.0,26.50386734006,60,0.036,7.37e-09,236000000.0,112.0,25
171.0,26.53289184568,60,0.036,7.37e-09,236000000.0,112.0,25
172.0,26.5619163513,60,0.036,7.37e-09,236000000.0,112.0,25
173.0,26.59094085692,60,0.036,7.37e-09,236000000.0,112.0,25
174.0,26.61996536254,60,0.036,7.37e-09,236000000.0,112.0,25
175.0,26.64898986816,60,0.036,7.37e-09,236000000.0,112.0,25
176.0,26.67801437378,60,0.036,7.37e-09,236000000.0,112.0,25
177.0,26.7070388794,60,0.036,7.37e-09,236000000.0,112.0,25
178.0,26.73581237793,60,0.036,7.37e-09,236000000.0,112.0,25
179.0,26.76458587646,60,0.036,7.37e-09,236000000.0,112.0,25
180.0,26.79335937499,60,0.036,7.37e-09,236000000.0,112.0,25
181.0,26.82213287352,60,0.036,7.37e-09,236000000.0,112.0,25
182.0,26.85090637205,60,0.036,7.37e-09,236000000.0,112.0,25
183.0,26.87967987058,60,0.036,7.37e-09,236000000.0,112.0,25
184.0,26.90845336911,60,0.036,7.37e-09,236000000.0,112.0,25
185.0,26.93722686764,60,0.036,7.37e-09,236000000.0,112.0,25
186.0,26.96600036617,60,0.036,7.37e-09,236000000.0,112.0,25
187.0,26.9947738647,60,0.036,7.37e-09,236000000.0,112.0,25
188.0,27.02329883571,60,0.036,7.37e-09,236000000.0,112.0,25
189.0,27.05182380672,60,0.036,7.37e-09,236000000.0,112.0,25
190.0,27.08034877773,60,0.036,7.37e-09,236000000.0,112.0,25
191.0,27.10887374874,60,0.036,7.37e-09,236000000.0,112.0,25
192.0,27.13739871975,60,0.036,7.37e-09,236000000.0,112.0,25
193.0,27.16592369076,60,0.036,7.37e-09,236000000.0,112.0,25
194.0,27.19444866177,60,0.036,7.37e-09,236000000.0,112.0,25
195.0,27.22297363278,60,0.036,7.37e-09,236000000.0,112.0,25
196.0,27.25149860379,60,0.036,7.37e-09,236000000.0,112.0,25
197.0,27.2800235748,60,0.036,7.37e-09,236000000.0,112.0,25
198.0,27.3083017349,60,0.036,7.37e-09,236000000.0,112.0,25
199.0,27.336579895,60,0.036,7.37e-09,236000000.0,112.0,25
200.0,27.3648580551,60,0.036,7.37e-09,236000000.0,112.0,25
201.0,27.3931362152,60,0.036,7.37e-09,236000000.0,112.0,25
202.0,27.4214143753,60,0.036,7.37e-09,236000000.0,112.0,25
203.0,27.4496925354,60,0.036,7.37e-09,236000000.0,112.0,25
204.0,27.4779706955,60,0.036,7.37e-09,236000000.0,112.0,25
205.0,27.5062488556,60,0.036,7.37e-09,236000000.0,112.0,25
206.0,27.5345270157,60,0.036,7.37e-09,236000000.0,112.0,25
207.0,27.5628051758,60,0.036,7.37e-09,236000000.0,112.0,25
208.0,27.59083919527,60,0.036,7.37e-09,236000000.0,112.0,25
209.0,27.61887321474,60,0.036,7.37e-09,236000000.0,112.0,25
210.0,27.64690723421,60,0.036,7.37e-09,236000000.0,112.0,25
211.0,27.67494125368,60,0.036,7.37e-09,236000000.0,112.0,25
212.0,27.70297527315,60,0.036,7.37e-09,236000000.0,112.0,25
213.0,27.73100929262,60,0.036,7.37e-09,236000000.0,112.0,25
214.0,27.75904331209,60,0.036,7.37e-09,236000000.0,112.0,25
215.0,27.78707733156,60,0.036,7.37e-09,236000000.0,112.0,25
216.0,27.81511135103,60,0.036,7.37e-09,236000000.0,112.0,25
217.0,27.8431453705,60,0.036,7.37e-09,236000000.0,112.0,25
218.0,27.87093696596,60,0.036,7.37e-09,236000000.0,112.0,25
219.0,27.89872856142,60,0.036,7.37e-09,236000000.0,112.0,25
220.0,27.92652015688,60,0.036,7.37e-09,236000000.0,112.0,25
221.0,27.95431175234,60,0.036,7.37e-09,236000000.0,112.0,25
222.0,27.9821033478,60,0.036,7.37e-09,236000000.0,112.0,25
223.0,28.00989494326,60,0.036,7.37e-09,236000000.0,112.0,25
224.0,28.03768653872,60,0.036,7.37e-09,236000000.0,112.0,25
225.0,28.06547813418,60,0.036,7.37e-09,236000000.0,112.0,25
226.0,28.09326972964,60,0.036,7.37e-09,236000000.0,112.0,25
227.0,28.1210613251,60,0.036,7.37e-09,236000000.0,112.0,25
228.0,28.14861278536,60,0.036,7.37e-09,236000000.0,112.0,25
229.0,28.17616424562,60,0.036,7.37e-09,236000000.0,112.0,25
230.0,28.20371570588,60,0.036,7.37e-09,236000000.0,112.0,25
231.0,28.23126716614,60,0.036,7.37e-09,236000000.0,112.0,25
232.0,28.2588186264,60,0.036,7.37e-09,236000000.0,112.0,25
233.0,28.28637008666,60,0.036,7.37e-09,236000000.0,112.0,25
234.0,28.31392154692,60,0.036,7.37e-09,236000000.0,112.0,25
235.0,28.34147300718,60,0.036,7.37e-09,236000000.0,112.0,25
236.0,28.36902446744,60,0.036,7.37e-09,236000000.0,112.0,25
237.0,28.3965759277,60,0.036,7.37e-09,236000000.0,112.0,25
238.0,28.42388916013,60,0.036,7.37e-09,236000000.0,112.0,25
239.0,28.45120239256,60,0.036,7.37e-09,236000000.0,112.0,25
240.0,28.47851562499,60,0.036,7.37e-09,236000000.0,112.0,25
241.0,28.50582885742,60,0.036,7.37e-09,236000000.0,112.0,25
242.0,28.53314208985,60,0.036,7.37e-09,236000000.0,112.0,25
243.0,28.56045532228,60,0.036,7.37e-09,236000000.0,112.0,25
244.0,28.58776855471,60,0.036,7.37e-09,236000000.0,112.0,25
245.0,28.61508178714,60,0.036,7.37e-09,236000000.0,112.0,25
246.0,28.64239501957,60,0.036,7.37e-09,236000000.0,112.0,25
247.0,28.669708252,60,0.036,7.37e-09,236000000.0,112.0,25
248.0,28.69678554539,60,0.036,7.37e-09,236000000.0,112.0,25
249.0,28.72386283878,60,0.036,7.37e-09,236000000.0,112.0,25
250.0,28.75094013217,60,0.036,7.37e-09,236000000.0,112.0,25
251.0,28.77801742556,60,0.036,7.37e-09,236000000.0,112.0,25
252.0,28.80509471895,60,0.036,7.37e-09,236000000.0,112.0,25
253.0,28.83217201234,60,0.036,7.37e-09,236000000.0,112.0,25
254.0,28.85924930573,60,0.036,7.37e-09,236000000.0,112.0,25
255.0,28.88632659912,60,0.036,7.37e-09,236000000.0,112.0,25
256.0,28.91340389251,60,0.036,7.37e-09,236000000.0,112.0,25
257.0,28.9404811859,60,0.036,7.37e-09,236000000.0,112.0,25
258.0,28.96732425689,60,0.036,7.37e-09,236000000.0,112.0,25
259.0,28.99416732788,60,0.036,7.37e-09,236000000.0,112.0,25
260.0,29.02101039887,60,0.036,7.37e-09,236000000.0,112.0,25
261.0,29.04785346986,60,0.036,7.37e-09,236000000.0,112.0,25
262.0,29.07469654085,60,0.036,7.37e-09,236000000.0,112.0,25
263.0,29.10153961184,60,0.036,7.37e-09,236000000.0,112.0,25
264.0,29.12838268283,60,0.036,7.37e-09,236000000.0,112.0,25
265.0,29.15522575382,60,0.036,7.37e-09,236000000.0,112.0,25
266.0,29.18206882481,60,0.036,7.37e-09,236000000.0,112.0,25
267.0,29.2089118958,60,0.036,7.37e-09,236000000.0,112.0,25
268.0,29.23552322392,60,0.036,7.37e-09,236000000.0,112.0,25
269.0,29.26213455204,60,0.036,7.37e-09,236000000.0,112.0,25
270.0,29.28874588016,60,0.036,7.37e-09,236000000.0,112.0,25
271.0,29.31535720828,60,0.036,7.37e-09,236000000.0,112.0,25
272.0,29.3419685364,60,0.036,7.37e-09,236000000.0,112.0,25
273.0,29.36857986452,60,0.036,7.37e-09,236000000.0,112.0,25
274.0,29.39519119264,60,0.036,7.37e-09,236000000.0,112.0,25
275.0,29.42180252076,60,0.036,7.37e-09,236000000.0,112.0,25
276.0,29.44841384888,60,0.036,7.37e-09,236000000.0,112.0,25
277.0,29.475025177,60,0.036,7.37e-09,236000000.0,112.0,25
278.0,29.50140647888,60,0.036,7.37e-09,236000000.0,112.0,25
279.0,29.52778778076,60,0.036,7.37e-09,236000000.0,112.0,25
280.0,29.55416908264,60,0.036,7.37e-09,236000000.0,112.0,25
281.0,29.58055038452,60,0.036,7.37e-09,236000000.0,112.0,25
282.0,29.6069316864,60,0.036,7.37e-09,236000000.0,112.0,25
283.0,29.63331298828,60,0.036,7.37e-09,236000000.0,112.0,25
284.0,29.65969429016,60,0.036,7.37e-09,236000000.0,112.0,25
285.0,29.68607559204,60,0.036,7.37e-09,236000000.0,112.0,25
286.0,29.71245689392,60,0.036,7.37e-09,236000000.0,112.0,25
287.0,29.7388381958,60,0.036,7.37e-09,236000000.0,112.0,25
288.0,29.76499137878,60,0.036,7.37e-09,236000000.0,112.0,25
289.0,29.79114456176,60,0.036,7.37e-09,236000000.0,112.0,25
290.0,29.81729774474,60,0.036,7.37e-09,236000000.0,112.0,25
291.0,29.84345092772,60,0.036,7.37e-09,236000000.0,112.0,25
292.0,29.8696041107,60,0.036,7.37e-09,236000000.0,112.0,25
293.0,29.89575729368,60,0.036,7.37e-09,236000000.0,112.0,25
294.0,29.92191047666,60,0.036,7.37e-09,236000000.0,112.0,25
295.0,29.94806365964,60,0.036,7.37e-09,236000000.0,112.0,25
296.0,29.97421684262,60,0.036,7.37e-09,236000000.0,112.0,25
297.0,30.0003700256,60,0.036,7.37e-09,236000000.0,112.0,25
298.0,30.02629718777,60,0.036,7.37e-09,236000000.0,112.0,25
299.0,30.05222434994,60,0.036,7.37e-09,236000000.0,112.0,25
300.0,30.07815151211,60,0.036,7.37e-09,236000000.0,112.0,25
301.0,30.10407867428,60,0.036,7.37e-09,236000000.0,112.0,25
302.0,30.13000583645,60,0.036,7.37e-09,236000000.0,112.0,25
303.0,30.15593299862,60,0.036,7.37e-09,236000000.0,112.0,25
304.0,30.18186016079,60,0.036,7.37e-09,236000000.0,112.0,25
305.0,30.20778732296,60,0.036,7.37e-09,236000000.0,112.0,25
306.0,30.23371448513,60,0.036,7.37e-09,236000000.0,112.0,25
307.0,30.2596416473,60,0.036,7.37e-09,236000000.0,112.0,25
308.0,30.28534488674,60,0.036,7.37e-09,236000000.0,112.0,25
309.0,30.31104812618,60,0.036,7.37e-09,236000000.0,112.0,25
310.0,30.33675136562,60,0.036,7.37e-09,236000000.0,112.0,25
311.0,30.36245460506,60,0.036,7.37e-09,236000000.0,112.0,25
312.0,30.3881578445,60,0.036,7.37e-09,236000000.0,112.0,25
313.0,30.41386108394,60,0.036,7.37e-09,236000000.0,112.0,25
314.0,30.43956432338,60,0.036,7.37e-09,236000000.0,112.0,25
315.0,30.46526756282,60,0.036,7.37e-09,236000000.0,112.0,25
316.0,30.49097080226,60,0.036,7.37e-09,236000000.0,112.0,25
317.0,30.5166740417,60,0.036,7.37e-09,236000000.0,112.0,25
318.0,30.5421548843,60,0.036,7.37e-09,236000000.0,112.0,25
319.0,30.5676357269,60,0.036,7.37e-09,236000000.0,112.0,25
320.0,30.5931165695,60,0.036,7.37e-09,236000000.0,112.0,25
321.0,30.6185974121,60,0.036,7.37e-09,236000000.0,112.0,25
322.0,30.6440782547,60,0.036,7.37e-09,236000000.0,112.0,25
323.0,30.6695590973,60,0.036,7.37e-09,236000000.0,112.0,25
324.0,30.6950399399,60,0.036,7.37e-09,236000000.0,112.0,25
325.0,30.7205207825,60,0.036,7.37e-09,236000000.0,112.0,25
326.0,30.7460016251,60,0.036,7.37e-09,236000000.0,112.0,25
327.0,30.7714824677,60,0.036,7.37e-09,236000000.0,112.0,25
328.0,30.79674339299,60,0.036,7.37e-09,236000000.0,112.0,25
329.0,30.82200431828,60,0.036,7.37e-09,236000000.0,112.0,25
330.0,30.84726524357,60,0.036,7.37e-09,236000000.0,112.0,25
