time,T_int,T_ext_1,Film_Coef,Density,Specific_Heat,Thermal_Conductivity,Radius
1.0,21.9681091309,22.88,0.036,7.77e-09,136000000.0,92.0,15
2.0,21.9431018829,23.76,0.036,7.77e-09,136000000.0,92.0,15
3.0,21.9220542908,24.64,0.036,7.77e-09,136000000.0,92.0,15
4.0,21.90564632415,25.52,0.036,7.77e-09,136000000.0,92.0,15
5.0,21.8892383575,26.4,0.036,7.77e-09,136000000.0,92.0,15
6.0,21.879467010475,27.28,0.036,7.77e-09,136000000.0,92.0,15
7.0,21.86969566345,28.16,0.036,7.77e-09,136000000.0,92.0,15
8.0,21.859924316425,29.04,0.036,7.77e-09,136000000.0,92.0,15
9.0,21.8501529694,29.92,0.036,7.77e-09,136000000.0,92.0,15
10.0,21.8520209789625,30.8,0.036,7.77e-09,136000000.0,92.0,15
11.0,21.853888988525,31.68,0.036,7.77e-09,136000000.0,92.0,15
12.0,21.8557569980875,32.56,0.036,7.77e-09,136000000.0,92.0,15
13.0,21.85762500765,33.44,0.036,7.77e-09,136000000.0,92.0,15
14.0,21.8594930172125,34.32,0.036,7.77e-09,136000000.0,92.0,15
15.0,21.861361026775,35.2,0.036,7.77e-09,136000000.0,92.0,15
16.0,21.8632290363375,36.08,0.036,7.77e-09,136000000.0,92.0,15
17.0,21.8650970459,36.96,0.036,7.77e-09,136000000.0,92.0,15
18.0,21.88107833862,37.84,0.036,7.77e-09,136000000.0,92.0,15
19.0,21.89705963134,38.72,0.036,7.77e-09,136000000.0,92.0,15
20.0,21.91304092406,39.6,0.036,7.77e-09,136000000.0,92.0,15
21.0,21.92902221678,40.48,0.036,7.77e-09,136000000.0,92.0,15
22.0,21.9450035095,41.36,0.036,7.77e-09,136000000.0,92.0,15
23.0,21.96098480222,42.24,0.036,7.77e-09,136000000.0,92.0,15
24.0,21.97696609494,43.12,0.036,7.77e-09,136000000.0,92.0,15
25.0,21.99294738766,44.0,0.036,7.77e-09,136000000.0,92.0,15
26.0,22.00892868038,44.88,0.036,7.77e-09,136000000.0,92.0,15
27.0,22.0249099731,45.76,0.036,7.77e-09,136000000.0,92.0,15
28.0,22.05486297603,46.64,0.036,7.77e-09,136000000.0,92.0,15
29.0,22.08481597896,47.52,0.036,7.77e-09,136000000.0,92.0,15
30.0,22.11476898189,48.4,0.036,7.77e-09,136000000.0,92.0,15
31.0,22.14472198482,49.28,0.036,7.77e-09,136000000.0,92.0,15
32.0,22.17467498775,50.16,0.036,7.77e-09,136000000.0,92.0,15
33.0,22.20462799068,51.04,0.036,7.77e-09,136000000.0,92.0,15
34.0,22.23458099361,51.92,0.036,7.77e-09,136000000.0,92.0,15
35.0,22.26453399654,52.8,0.036,7.77e-09,136000000.0,92.0,15
36.0,22.29448699947,53.68,0.036,7.77e-09,136000000.0,92.0,15
37.0,22.3244400024,54.56,0.036,7.77e-09,136000000.0,92.0,15
38.0,22.36824760433,55.44,0.036,7.77e-09,136000000.0,92.0,15
39.0,22.41205520626,56.32,0.036,7.77e-09,136000000.0,92.0,15
40.0,22.45586280819,57.2,0.036,7.77e-09,136000000.0,92.0,15
41.0,22.49967041012,58.08,0.036,7.77e-09,136000000.0,92.0,15
42.0,22.54347801205,58.96,0.036,7.77e-09,136000000.0,92.0,15
43.0,22.58728561398,59.84,0.036,7.77e-09,136000000.0,92.0,15
44.0,22.63109321591,60.72,0.036,7.77e-09,136000000.0,92.0,15
45.0,22.67490081784,61.6,0.036,7.77e-09,136000000.0,92.0,15
46.0,22.71870841977,62.48,0.036,7.77e-09,136000000.0,92.0,15
47.0,22.7625160217,63.36,0.036,7.77e-09,136000000.0,92.0,15
48.0,22.80839633939,64.24,0.036,7.77e-09,136000000.0,92.0,15
49.0,22.85427665708,65.12,0.036,7.77e-09,136000000.0,92.0,15
50.0,22.90015697477,66.0,0.036,7.77e-09,136000000.0,92.0,15
51.0,22.94603729246,62.94,0.036,7.77e-09,136000000.0,92.0,15
52.0,22.99191761015,62.88,0.036,7.77e-09,136000000.0,92.0,15
53.0,23.03779792784,62.82,0.036,7.77e-09,136000000.0,92.0,15
54.0,23.08367824553,62.76,0.036,7.77e-09,136000000.0,92.0,15
55.0,23.12955856322,62.7,0.036,7.77e-09,136000000.0,92.0,15
56.0,23.17543888091,62.64,0.036,7.77e-09,136000000.0,92.0,15
57.0,23.2213191986,62.58,0.036,7.77e-09,136000000.0,92.0,15
58.0,23.26503295898,62.52,0.036,7.77e-09,136000000.0,92.0,15
59.0,23.30874671936,62.46,0.036,7.77e-09,136000000.0,92.0,15
60.0,23.35246047974,62.4,0.036,7.77e-09,136000000.0,92.0,15
61.0,23.39617424012,62.34,0.036,7.77e-09,136000000.0,92.0,15
62.0,23.4398880005,62.28,0.036,7.77e-09,136000000.0,92.0,15
63.0,23.48360176088,62.22,0.036,7.77e-09,136000000.0,92.0,15
64.0,23.52731552126,62.16,0.036,7.77e-09,136000000.0,92.0,15
65.0,23.57102928164,62.1,0.036,7.77e-09,136000000.0,92.0,15
66.0,23.61474304202,62.04,0.036,7.77e-09,136000000.0,92.0,15
67.0,23.6584568024,61.98,0.036,7.77e-09,136000000.0,92.0,15
68.0,23.70042228702,61.92,0.036,7.77e-09,136000000.0,92.0,15
69.0,23.74238777164,61.86,0.036,7.77e-09,136000000.0,92.0,15
70.0,23.78435325626,61.8,0.036,7.77e-09,136000000.0,92.0,15
71.0,23.82631874088,61.74,0.036,7.77e-09,136000000.0,92.0,15
72.0,23.8682842255,61.68,0.036,7.77e-09,136000000.0,92.0,15
73.0,23.91024971012,61.62,0.036,7.77e-09,136000000.0,92.0,15
74.0,23.95221519474,61.56,0.036,7.77e-09,136000000.0,92.0,15
75.0,23.99418067936,61.5,0.036,7.77e-09,136000000.0,92.0,15
76.0,24.03614616398,61.44,0.036,7.77e-09,136000000.0,92.0,15
77.0,24.0781116486,61.38,0.036,7.77e-09,136000000.0,92.0,15
78.0,24.11836833957,61.32,0.036,7.77e-09,136000000.0,92.0,15
79.0,24.15862503054,61.26,0.036,7.77e-09,136000000.0,92.0,15
80.0,24.19888172151,61.2,0.036,7.77e-09,136000000.0,92.0,15
81.0,24.23913841248,61.14,0.036,7.77e-09,136000000.0,92.0,15
82.0,24.27939510345,61.08,0.036,7.77e-09,136000000.0,92.0,15
83.0,24.31965179442,61.02,0.036,7.77e-09,136000000.0,92.0,15
84.0,24.35990848539,60.96,0.036,7.77e-09,136000000.0,92.0,15
85.0,24.40016517636,60.9,0.036,7.77e-09,136000000.0,92.0,15
86.0,24.44042186733,60.84,0.036,7.77e-09,136000000.0,92.0,15
87.0,24.4806785583,60.78,0.036,7.77e-09,136000000.0,92.0,15
88.0,24.51923103328,60.72,0.036,7.77e-09,136000000.0,92.0,15
89.0,24.55778350826,60.66,0.036,7.77e-09,136000000.0,92.0,15
90.0,24.59633598324,60.6,0.036,7.77e-09,136000000.0,92.0,15
91.0,24.63488845822,60.54,0.036,7.77e-09,136000000.0,92.0,15
92.0,24.6734409332,60.48,0.036,7.77e-09,136000000.0,92.0,15
93.0,24.71199340818,60.42,0.036,7.77e-09,136000000.0,92.0,15
94.0,24.75054588316,60.36,0.036,7.77e-09,136000000.0,92.0,15
95.0,24.78909835814,60.3,0.036,7.77e-09,136000000.0,92.0,15
96.0,24.82765083312,60.24,0.036,7.77e-09,136000000.0,92.0,15
97.0,24.8662033081,60.18,0.036,7.77e-09,136000000.0,92.0,15
98.0,24.9040309906,60.12,0.036,7.77e-09,136000000.0,92.0,15
99.0,24.9418586731,60.06,0.036,7.77e-09,136000000.0,92.0,15
100.0,24.9796863556,60.0,0.036,7.77e-09,136000000.0,92.0,15
101.0,25.0175140381,60,0.036,7.77e-09,136000000.0,92.0,15
102.0,25.0553417206,60,0.036,7.77e-09,136000000.0,92.0,15
103.0,25.0931694031,60,0.036,7.77e-09,136000000.0,92.0,15
104.0,25.1309970856,60,0.036,7.77e-09,136000000.0,92.0,15
105.0,25.1688247681,60,0.036,7.77e-09,136000000.0,92.0,15
106.0,25.2066524506,60,0.036,7.77e-09,136000000.0,92.0,15
107.0,25.2444801331,60,0.036,7.77e-09,136000000.0,92.0,15
108.0,25.28193702702,60,0.036,7.77e-09,136000000.0,92.0,15
109.0,25.31939392094,60,0.036,7.77e-09,136000000.0,92.0,15
110.0,25.35685081486,60,0.036,7.77e-09,136000000.0,92.0,15
111.0,25.39430770878,60,0.036,7.77e-09,136000000.0,92.0,15
112.0,25.4317646027,60,0.036,7.77e-09,136000000.0,92.0,15
113.0,25.46922149662,60,0.036,7.77e-09,136000000.0,92.0,15
114.0,25.50667839054,60,0.036,7.77e-09,136000000.0,92.0,15
115.0,25.54413528446,60,0.036,7.77e-09,136000000.0,92.0,15
116.0,25.58159217838,60,0.036,7.77e-09,136000000.0,92.0,15
117.0,25.6190490723,60,0.036,7.77e-09,136000000.0,92.0,15
118.0,25.65610370639,60,0.036,7.77e-09,136000000.0,92.0,15
119.0,25.69315834048,60,0.036,7.77e-09,136000000.0,92.0,15
120.0,25.73021297457,60,0.036,7.77e-09,136000000.0,92.0,15
121.0,25.76726760866,60,0.036,7.77e-09,136000000.0,92.0,15
122.0,25.80432224275,60,0.036,7.77e-09,136000000.0,92.0,15
123.0,25.84137687684,60,0.036,7.77e-09,136000000.0,92.0,15
124.0,25.87843151093,60,0.036,7.77e-09,136000000.0,92.0,15
125.0,25.91548614502,60,0.036,7.77e-09,136000000.0,92.0,15
126.0,25.95254077911,60,0.036,7.77e-09,136000000.0,92.0,15
127.0,25.9895954132,60,0.036,7.77e-09,136000000.0,92.0,15
128.0,26.02624912261,60,0.036,7.77e-09,136000000.0,92.0,15
129.0,26.06290283202,60,0.036,7.77e-09,136000000.0,92.0,15
130.0,26.09955654143,60,0.036,7.77e-09,136000000.0,92.0,15
131.0,26.13621025084,60,0.036,7.77e-09,136000000.0,92.0,15
132.0,26.17286396025,60,0.036,7.77e-09,136000000.0,92.0,15
133.0,26.20951766966,60,0.036,7.77e-09,136000000.0,92.0,15
134.0,26.24617137907,60,0.036,7.77e-09,136000000.0,92.0,15
135.0,26.28282508848,60,0.036,7.77e-09,136000000.0,92.0,15
136.0,26.31947879789,60,0.036,7.77e-09,136000000.0,92.0,15
137.0,26.3561325073,60,0.036,7.77e-09,136000000.0,92.0,15
138.0,26.39238986967,60,0.036,7.77e-09,136000000.0,92.0,15
139.0,26.42864723204,60,0.036,7.77e-09,136000000.0,92.0,15
140.0,26.46490459441,60,0.036,7.77e-09,136000000.0,92.0,15
141.0,26.50116195678,60,0.036,7.77e-09,136000000.0,92.0,15
142.0,26.53741931915,60,0.036,7.77e-09,136000000.0,92.0,15
143.0,26.57367668152,60,0.036,7.77e-09,136000000.0,92.0,15
144.0,26.60993404389,60,0.036,7.77e-09,136000000.0,92.0,15
145.0,26.64619140626,60,0.036,7.77e-09,136000000.0,92.0,15
146.0,26.68244876863,60,0.036,7.77e-09,136000000.0,92.0,15
147.0,26.718706131,60,0.036,7.77e-09,136000000.0,92.0,15
148.0,26.75457210542,60,0.036,7.77e-09,136000000.0,92.0,15
149.0,26.79043807984,60,0.036,7.77e-09,136000000.0,92.0,15
150.0,26.82630405426,60,0.036,7.77e-09,136000000.0,92.0,15
151.0,26.86217002868,60,0.036,7.77e-09,136000000.0,92.0,15
152.0,26.8980360031,60,0.036,7.77e-09,136000000.0,92.0,15
153.0,26.93390197752,60,0.036,7.77e-09,136000000.0,92.0,15
154.0,26.96976795194,60,0.036,7.77e-09,136000000.0,92.0,15
155.0,27.00563392636,60,0.036,7.77e-09,136000000.0,92.0,15
156.0,27.04149990078,60,0.036,7.77e-09,136000000.0,92.0,15
157.0,27.0773658752,60,0.036,7.77e-09,136000000.0,92.0,15
158.0,27.11284503933,60,0.036,7.77e-09,136000000.0,92.0,15
159.0,27.14832420346,60,0.036,7.77e-09,136000000.0,92.0,15
160.0,27.18380336759,60,0.036,7.77e-09,136000000.0,92.0,15
161.0,27.21928253172,60,0.036,7.77e-09,136000000.0,92.0,15
162.0,27.25476169585,60,0.036,7.77e-09,136000000.0,92.0,15
163.0,27.29024085998,60,0.036,7.77e-09,136000000.0,92.0,15
164.0,27.32572002411,60,0.036,7.77e-09,136000000.0,92.0,15
165.0,27.36119918824,60,0.036,7.77e-09,136000000.0,92.0,15
166.0,27.39667835237,60,0.036,7.77e-09,136000000.0,92.0,15
167.0,27.4321575165,60,0.036,7.77e-09,136000000.0,92.0,15
168.0,27.46725406649,60,0.036,7.77e-09,136000000.0,92.0,15
169.0,27.50235061648,60,0.036,7.77e-09,136000000.0,92.0,15
170.0,27.53744716647,60,0.036,7.77e-09,136000000.0,92.0,15
171.0,27.57254371646,60,0.036,7.77e-09,136000000.0,92.0,15
172.0,27.60764026645,60,0.036,7.77e-09,136000000.0,92.0,15
173.0,27.64273681644,60,0.036,7.77e-09,136000000.0,92.0,15
174.0,27.67783336643,60,0.036,7.77e-09,136000000.0,92.0,15
175.0,27.71292991642,60,0.036,7.77e-09,136000000.0,92.0,15
176.0,27.74802646641,60,0.036,7.77e-09,136000000.0,92.0,15
177.0,27.7831230164,60,0.036,7.77e-09,136000000.0,92.0,15
178.0,27.81784114841,60,0.036,7.77e-09,136000000.0,92.0,15
179.0,27.85255928042,60,0.036,7.77e-09,136000000.0,92.0,15
180.0,27.88727741243,60,0.036,7.77e-09,136000000.0,92.0,15
181.0,27.92199554444,60,0.036,7.77e-09,136000000.0,92.0,15
182.0,27.95671367645,60,0.036,7.77e-09,136000000.0,92.0,15
183.0,27.99143180846,60,0.036,7.77e-09,136000000.0,92.0,15
184.0,28.02614994047,60,0.036,7.77e-09,136000000.0,92.0,15
185.0,28.06086807248,60,0.036,7.77e-09,136000000.0,92.0,15
186.0,28.09558620449,60,0.036,7.77e-09,136000000.0,92.0,15
187.0,28.1303043365,60,0.036,7.77e-09,136000000.0,92.0,15
188.0,28.16464843746,60,0.036,7.77e-09,136000000.0,92.0,15
189.0,28.19899253842,60,0.036,7.77e-09,136000000.0,92.0,15
190.0,28.23333663938,60,0.036,7.77e-09,136000000.0,92.0,15
191.0,28.26768074034,60,0.036,7.77e-09,136000000.0,92.0,15
192.0,28.3020248413,60,0.036,7.77e-09,136000000.0,92.0,15
193.0,28.33636894226,60,0.036,7.77e-09,136000000.0,92.0,15
194.0,28.37071304322,60,0.036,7.77e-09,136000000.0,92.0,15
195.0,28.40505714418,60,0.036,7.77e-09,136000000.0,92.0,15
196.0,28.43940124514,60,0.036,7.77e-09,136000000.0,92.0,15
197.0,28.4737453461,60,0.036,7.77e-09,136000000.0,92.0,15
198.0,28.50771923068,60,0.036,7.77e-09,136000000.0,92.0,15
199.0,28.54169311526,60,0.036,7.77e-09,136000000.0,92.0,15
200.0,28.57566699984,60,0.036,7.77e-09,136000000.0,92.0,15
201.0,28.60964088442,60,0.036,7.77e-09,136000000.0,92.0,15
202.0,28.643614769,60,0.036,7.77e-09,136000000.0,92.0,15
203.0,28.67758865358,60,0.036,7.77e-09,136000000.0,92.0,15
204.0,28.71156253816,60,0.036,7.77e-09,136000000.0,92.0,15
205.0,28.74553642274,60,0.036,7.77e-09,136000000.0,92.0,15
206.0,28.77951030732,60,0.036,7.77e-09,136000000.0,92.0,15
207.0,28.8134841919,60,0.036,7.77e-09,136000000.0,92.0,15
208.0,28.84709205628,60,0.036,7.77e-09,136000000.0,92.0,15
209.0,28.88069992066,60,0.036,7.77e-09,136000000.0,92.0,15
210.0,28.91430778504,60,0.036,7.77e-09,136000000.0,92.0,15
211.0,28.94791564942,60,0.036,7.77e-09,136000000.0,92.0,15
212.0,28.9815235138,60,0.036,7.77e-09,136000000.0,92.0,15
213.0,29.01513137818,60,0.036,7.77e-09,136000000.0,92.0,15
214.0,29.04873924256,60,0.036,7.77e-09,136000000.0,92.0,15
215.0,29.08234710694,60,0.036,7.77e-09,136000000.0,92.0,15
216.0,29.11595497132,60,0.036,7.77e-09,136000000.0,92.0,15
217.0,29.1495628357,60,0.036,7.77e-09,136000000.0,92.0,15
218.0,29.18280849457,60,0.036,7.77e-09,136000000.0,92.0,15
219.0,29.21605415344,60,0.036,7.77e-09,136000000.0,92.0,15
220.0,29.24929981231,60,0.036,7.77e-09,136000000.0,92.0,15
221.0,29.28254547118,60,0.036,7.77e-09,136000000.0,92.0,15
222.0,29.31579113005,60,0.036,7.77e-09,136000000.0,92.0,15
223.0,29.34903678892,60,0.036,7.77e-09,136000000.0,92.0,15
224.0,29.38228244779,60,0.036,7.77e-09,136000000.0,92.0,15
225.0,29.41552810666,60,0.036,7.77e-09,136000000.0,92.0,15
226.0,29.44877376553,60,0.036,7.77e-09,136000000.0,92.0,15
227.0,29.4820194244,60,0.036,7.77e-09,136000000.0,92.0,15
228.0,29.51490688321,60,0.036,7.77e-09,136000000.0,92.0,15
229.0,29.54779434202,60,0.036,7.77e-09,136000000.0,92.0,15
230.0,29.58068180083,60,0.036,7.77e-09,136000000.0,92.0,15
231.0,29.61356925964,60,0.036,7.77e-09,136000000.0,92.0,15
232.0,29.64645671845,60,0.036,7.77e-09,136000000.0,92.0,15
233.0,29.67934417726,60,0.036,7.77e-09,136000000.0,92.0,15
234.0,29.71223163607,60,0.036,7.77e-09,136000000.0,92.0,15
235.0,29.74511909488,60,0.036,7.77e-09,136000000.0,92.0,15
236.0,29.77800655369,60,0.036,7.77e-09,136000000.0,92.0,15
237.0,29.8108940125,60,0.036,7.77e-09,136000000.0,92.0,15
238.0,29.84342689519,60,0.036,7.77e-09,136000000.0,92.0,15
239.0,29.87595977788,60,0.036,7.77e-09,136000000.0,92.0,15
240.0,29.90849266057,60,0.036,7.77e-09,136000000.0,92.0,15
241.0,29.94102554326,60,0.036,7.77e-09,136000000.0,92.0,15
242.0,29.97355842595,60,0.036,7.77e-09,136000000.0,92.0,15
243.0,30.00609130864,60,0.036,7.77e-09,136000000.0,92.0,15
244.0,30.03862419133,60,0.036,7.77e-09,136000000.0,92.0,15
245.0,30.07115707402,60,0.036,7.77e-09,136000000.0,92.0,15
246.0,30.10368995671,60,0.036,7.77e-09,136000000.0,92.0,15
247.0,30.1362228394,60,0.036,7.77e-09,136000000.0,92.0,15
248.0,30.16840515141,60,0.036,7.77e-09,136000000.0,92.0,15
249.0,30.20058746342,60,0.036,7.77e-09,136000000.0,92.0,15
250.0,30.23276977543,60,0.036,7.77e-09,136000000.0,92.0,15
251.0,30.26495208744,60,0.036,7.77e-09,136000000.0,92.0,15
252.0,30.29713439945,60,0.036,7.77e-09,136000000.0,92.0,15
253.0,30.32931671146,60,0.036,7.77e-09,136000000.0,92.0,15
254.0,30.36149902347,60,0.036,7.77e-09,136000000.0,92.0,15
255.0,30.39368133548,60,0.036,7.77e-09,136000000.0,92.0,15
256.0,30.42586364749,60,0.036,7.77e-09,136000000.0,92.0,15
257.0,30.4580459595,60,0.036,7.77e-09,136000000.0,92.0,15
258.0,30.48988151553,60,0.036,7.77e-09,136000000.0,92.0,15
259.0,30.52171707156,60,0.036,7.77e-09,136000000.0,92.0,15
260.0,30.55355262759,60,0.036,7.77e-09,136000000.0,92.0,15
261.0,30.58538818362,60,0.036,7.77e-09,136000000.0,92.0,15
262.0,30.61722373965,60,0.036,7.77e-09,136000000.0,92.0,15
263.0,30.64905929568,60,0.036,7.77e-09,136000000.0,92.0,15
264.0,30.68089485171,60,0.036,7.77e-09,136000000.0,92.0,15
265.0,30.71273040774,60,0.036,7.77e-09,136000000.0,92.0,15
266.0,30.74456596377,60,0.036,7.77e-09,136000000.0,92.0,15
267.0,30.7764015198,60,0.036,7.77e-09,136000000.0,92.0,15
268.0,30.80789413454,60,0.036,7.77e-09,136000000.0,92.0,15
269.0,30.83938674928,60,0.036,7.77e-09,136000000.0,92.0,15
270.0,30.87087936402,60,0.036,7.77e-09,136000000.0,92.0,15
271.0,30.90237197876,60,0.036,7.77e-09,136000000.0,92.0,15
272.0,30.9338645935,60,0.036,7.77e-09,136000000.0,92.0,15
273.0,30.96535720824,60,0.036,7.77e-09,136000000.0,92.0,15
274.0,30.99684982298,60,0.036,7.77e-09,136000000.0,92.0,15
275.0,31.02834243772,60,0.036,7.77e-09,136000000.0,92.0,15
276.0,31.05983505246,60,0.036,7.77e-09,136000000.0,92.0,15
277.0,31.0913276672,60,0.036,7.77e-09,136000000.0,92.0,15
278.0,31.12248077389,60,0.036,7.77e-09,136000000.0,92.0,15
279.0,31.15363388058,60,0.036,7.77e-09,136000000.0,92.0,15
280.0,31.18478698727,60,0.036,7.77e-09,136000000.0,92.0,15
281.0,31.21594009396,60,0.036,7.77e-09,136000000.0,92.0,15
282.0,31.24709320065,60,0.036,7.77e-09,136000000.0,92.0,15
283.0,31.27824630734,60,0.036,7.77e-09,136000000.0,92.0,15
284.0,31.30939941403,60,0.036,7.77e-09,136000000.0,92.0,15
285.0,31.34055252072,60,0.036,7.77e-09,136000000.0,92.0,15
286.0,31.37170562741,60,0.036,7.77e-09,136000000.0,92.0,15
287.0,31.4028587341,60,0.036,7.77e-09,136000000.0,92.0,15
288.0,31.43367614743,60,0.036,7.77e-09,136000000.0,92.0,15
289.0,31.46449356076,60,0.036,7.77e-09,136000000.0,92.0,15
290.0,31.49531097409,60,0.036,7.77e-09,136000000.0,92.0,15
291.0,31.52612838742,60,0.036,7.77e-09,136000000.0,92.0,15
292.0,31.55694580075,60,0.036,7.77e-09,136000000.0,92.0,15
293.0,31.58776321408,60,0.036,7.77e-09,136000000.0,92.0,15
294.0,31.61858062741,60,0.036,7.77e-09,136000000.0,92.0,15
295.0,31.64939804074,60,0.036,7.77e-09,136000000.0,92.0,15
296.0,31.68021545407,60,0.036,7.77e-09,136000000.0,92.0,15
297.0,31.7110328674,60,0.036,7.77e-09,136000000.0,92.0,15
298.0,31.7415180206,60,0.036,7.77e-09,136000000.0,92.0,15
299.0,31.7720031738,60,0.036,7.77e-09,136000000.0,92.0,15
300.0,31.802488327,60,0.036,7.77e-09,136000000.0,92.0,15
301.0,31.8329734802,60,0.036,7.77e-09,136000000.0,92.0,15
302.0,31.8634586334,60,0.036,7.77e-09,136000000.0,92.0,15
303.0,31.8939437866,60,0.036,7.77e-09,136000000.0,92.0,15
304.0,31.9244289398,60,0.036,7.77e-09,136000000.0,92.0,15
305.0,31.954914093,60,0.036,7.77e-09,136000000.0,92.0,15
306.0,31.9853992462,60,0.036,7.77e-09,136000000.0,92.0,15
307.0,32.0158843994,60,0.036,7.77e-09,136000000.0,92.0,15
308.0,32.04604110717,60,0.036,7.77e-09,136000000.0,92.0,15
309.0,32.07619781494,60,0.036,7.77e-09,136000000.0,92.0,15
310.0,32.10635452271,60,0.036,7.77e-09,136000000.0,92.0,15
311.0,32.13651123048,60,0.036,7.77e-09,136000000.0,92.0,15
312.0,32.16666793825,60,0.036,7.77e-09,136000000.0,92.0,15
313.0,32.19682464602,60,0.036,7.77e-09,136000000.0,92.0,15
314.0,32.22698135379,60,0.036,7.77e-09,136000000.0,92.0,15
315.0,32.25713806156,60,0.036,7.77e-09,136000000.0,92.0,15
316.0,32.28729476933,60,0.036,7.77e-09,136000000.0,92.0,15
317.0,32.3174514771,60,0.036,7.77e-09,136000000.0,92.0,15
318.0,32.34728355412,60,0.036,7.77e-09,136000000.0,92.0,15
319.0,32.37711563114,60,0.036,7.77e-09,136000000.0,92.0,15
320.0,32.40694770816,60,0.036,7.77e-09,136000000.0,92.0,15
321.0,32.43677978518,60,0.036,7.77e-09,136000000.0,92.0,15
322.0,32.4666118622,60,0.036,7.77e-09,136000000.0,92.0,15
323.0,32.49644393922,60,0.036,7.77e-09,136000000.0,92.0,15
324.0,32.52627601624,60,0.036,7.77e-09,136000000.0,92.0,15
325.0,32.55610809326,60,0.036,7.77e-09,136000000.0,92.0,15
326.0,32.58594017028,60,0.036,7.77e-09,136000000.0,92.0,15
327.0,32.6157722473,60,0.036,7.77e-09,136000000.0,92.0,15
328.0,32.64528236388,60,0.036,7.77e-09,136000000.0,92.0,15
329.0,32.67479248046,60,0.036,7.77e-09,136000000.0,92.0,15
330.0,32.70430259704,60,0.036,7.77e-09,136000000.0,92.0,15
331.0,32.73381271362,60,0.036,7.77e-09,136000000.0,92.0,15
332.0,32.7633228302,60,0.036,7.77e-09,136000000.0,92.0,15
333.0,32.79283294678,60,0.036,7.77e-09,136000000.0,92.0,15
334.0,32.82234306336,60,0.036,7.77e-09,136000000.0,92.0,15
335.0,32.85185317994,60,0.036,7.77e-09,136000000.0,92.0,15
