time,T_int,T_ext_1,Film_Coef,Density,Specific_Heat,Thermal_Conductivity,Radius
1.0,21.9617233276,22.88,0.036,7.77e-09,686000000.0,152.0,15
2.0,21.931219101,23.76,0.036,7.77e-09,686000000.0,152.0,15
3.0,21.9058609009,24.64,0.036,7.77e-09,686000000.0,152.0,15
4.0,21.8867788315,25.52,0.036,7.77e-09,686000000.0,152.0,15
5.0,21.8676967621,26.4,0.036,7.77e-09,686000000.0,152.0,15
6.0,21.857018470775,27.28,0.036,7.77e-09,686000000.0,152.0,15
7.0,21.84634017945,28.16,0.036,7.77e-09,686000000.0,152.0,15
8.0,21.835661888125,29.04,0.036,7.77e-09,686000000.0,152.0,15
9.0,21.8249835968,29.92,0.036,7.77e-09,686000000.0,152.0,15
10.0,21.8278830051375,30.8,0.036,7.77e-09,686000000.0,152.0,15
11.0,21.830782413475,31.68,0.036,7.77e-09,686000000.0,152.0,15
12.0,21.8336818218125,32.56,0.036,7.77e-09,686000000.0,152.0,15
13.0,21.83658123015,33.44,0.036,7.77e-09,686000000.0,152.0,15
14.0,21.8394806384875,34.32,0.036,7.77e-09,686000000.0,152.0,15
15.0,21.842380046825,35.2,0.036,7.77e-09,686000000.0,152.0,15
16.0,21.8452794551625,36.08,0.036,7.77e-09,686000000.0,152.0,15
17.0,21.8481788635,36.96,0.036,7.77e-09,686000000.0,152.0,15
18.0,21.86690521238,37.84,0.036,7.77e-09,686000000.0,152.0,15
19.0,21.88563156126,38.72,0.036,7.77e-09,686000000.0,152.0,15
20.0,21.90435791014,39.6,0.036,7.77e-09,686000000.0,152.0,15
21.0,21.92308425902,40.48,0.036,7.77e-09,686000000.0,152.0,15
22.0,21.9418106079,41.36,0.036,7.77e-09,686000000.0,152.0,15
23.0,21.96053695678,42.24,0.036,7.77e-09,686000000.0,152.0,15
24.0,21.97926330566,43.12,0.036,7.77e-09,686000000.0,152.0,15
25.0,21.99798965454,44.0,0.036,7.77e-09,686000000.0,152.0,15
26.0,22.01671600342,44.88,0.036,7.77e-09,686000000.0,152.0,15
27.0,22.0354423523,45.76,0.036,7.77e-09,686000000.0,152.0,15
28.0,22.06962776185,46.64,0.036,7.77e-09,686000000.0,152.0,15
29.0,22.1038131714,47.52,0.036,7.77e-09,686000000.0,152.0,15
30.0,22.13799858095,48.4,0.036,7.77e-09,686000000.0,152.0,15
31.0,22.1721839905,49.28,0.036,7.77e-09,686000000.0,152.0,15
32.0,22.20636940005,50.16,0.036,7.77e-09,686000000.0,152.0,15
33.0,22.2405548096,51.04,0.036,7.77e-09,686000000.0,152.0,15
34.0,22.27474021915,51.92,0.036,7.77e-09,686000000.0,152.0,15
35.0,22.3089256287,52.8,0.036,7.77e-09,686000000.0,152.0,15
36.0,22.34311103825,53.68,0.036,7.77e-09,686000000.0,152.0,15
37.0,22.3772964478,54.56,0.036,7.77e-09,686000000.0,152.0,15
38.0,22.42674980168,55.44,0.036,7.77e-09,686000000.0,152.0,15
39.0,22.47620315556,56.32,0.036,7.77e-09,686000000.0,152.0,15
40.0,22.52565650944,57.2,0.036,7.77e-09,686000000.0,152.0,15
41.0,22.57510986332,58.08,0.036,7.77e-09,686000000.0,152.0,15
42.0,22.6245632172,58.96,0.036,7.77e-09,686000000.0,152.0,15
43.0,22.67401657108,59.84,0.036,7.77e-09,686000000.0,152.0,15
44.0,22.72346992496,60.72,0.036,7.77e-09,686000000.0,152.0,15
45.0,22.77292327884,61.6,0.036,7.77e-09,686000000.0,152.0,15
46.0,22.82237663272,62.48,0.036,7.77e-09,686000000.0,152.0,15
47.0,22.8718299866,63.36,0.036,7.77e-09,686000000.0,152.0,15
48.0,22.92290306094,64.24,0.036,7.77e-09,686000000.0,152.0,15
49.0,22.97397613528,65.12,0.036,7.77e-09,686000000.0,152.0,15
50.0,23.02504920962,66.0,0.036,7.77e-09,686000000.0,152.0,15
51.0,23.07612228396,62.94,0.036,7.77e-09,686000000.0,152.0,15
52.0,23.1271953583,62.88,0.036,7.77e-09,686000000.0,152.0,15
53.0,23.17826843264,62.82,0.036,7.77e-09,686000000.0,152.0,15
54.0,23.22934150698,62.76,0.036,7.77e-09,686000000.0,152.0,15
55.0,23.28041458132,62.7,0.036,7.77e-09,686000000.0,152.0,15
56.0,23.33148765566,62.64,0.036,7.77e-09,686000000.0,152.0,15
57.0,23.38256073,62.58,0.036,7.77e-09,686000000.0,152.0,15
58.0,23.43075561525,62.52,0.036,7.77e-09,686000000.0,152.0,15
59.0,23.4789505005,62.46,0.036,7.77e-09,686000000.0,152.0,15
60.0,23.52714538575,62.4,0.036,7.77e-09,686000000.0,152.0,15
61.0,23.575340271,62.34,0.036,7.77e-09,686000000.0,152.0,15
62.0,23.62353515625,62.28,0.036,7.77e-09,686000000.0,152.0,15
63.0,23.6717300415,62.22,0.036,7.77e-09,686000000.0,152.0,15
64.0,23.71992492675,62.16,0.036,7.77e-09,686000000.0,152.0,15
65.0,23.768119812,62.1,0.036,7.77e-09,686000000.0,152.0,15
66.0,23.81631469725,62.04,0.036,7.77e-09,686000000.0,152.0,15
67.0,23.8645095825,61.98,0.036,7.77e-09,686000000.0,152.0,15
68.0,23.9106241226,61.92,0.036,7.77e-09,686000000.0,152.0,15
69.0,23.9567386627,61.86,0.036,7.77e-09,686000000.0,152.0,15
70.0,24.0028532028,61.8,0.036,7.77e-09,686000000.0,152.0,15
71.0,24.0489677429,61.74,0.036,7.77e-09,686000000.0,152.0,15
72.0,24.095082283,61.68,0.036,7.77e-09,686000000.0,152.0,15
73.0,24.1411968231,61.62,0.036,7.77e-09,686000000.0,152.0,15
74.0,24.1873113632,61.56,0.036,7.77e-09,686000000.0,152.0,15
75.0,24.2334259033,61.5,0.036,7.77e-09,686000000.0,152.0,15
76.0,24.2795404434,61.44,0.036,7.77e-09,686000000.0,152.0,15
77.0,24.3256549835,61.38,0.036,7.77e-09,686000000.0,152.0,15
78.0,24.36983184813,61.32,0.036,7.77e-09,686000000.0,152.0,15
79.0,24.41400871276,61.26,0.036,7.77e-09,686000000.0,152.0,15
80.0,24.45818557739,61.2,0.036,7.77e-09,686000000.0,152.0,15
81.0,24.50236244202,61.14,0.036,7.77e-09,686000000.0,152.0,15
82.0,24.54653930665,61.08,0.036,7.77e-09,686000000.0,152.0,15
83.0,24.59071617128,61.02,0.036,7.77e-09,686000000.0,152.0,15
84.0,24.63489303591,60.96,0.036,7.77e-09,686000000.0,152.0,15
85.0,24.67906990054,60.9,0.036,7.77e-09,686000000.0,152.0,15
86.0,24.72324676517,60.84,0.036,7.77e-09,686000000.0,152.0,15
87.0,24.7674236298,60.78,0.036,7.77e-09,686000000.0,152.0,15
88.0,24.80969142917,60.72,0.036,7.77e-09,686000000.0,152.0,15
89.0,24.85195922854,60.66,0.036,7.77e-09,686000000.0,152.0,15
90.0,24.89422702791,60.6,0.036,7.77e-09,686000000.0,152.0,15
91.0,24.93649482728,60.54,0.036,7.77e-09,686000000.0,152.0,15
92.0,24.97876262665,60.48,0.036,7.77e-09,686000000.0,152.0,15
93.0,25.02103042602,60.42,0.036,7.77e-09,686000000.0,152.0,15
94.0,25.06329822539,60.36,0.036,7.77e-09,686000000.0,152.0,15
95.0,25.10556602476,60.3,0.036,7.77e-09,686000000.0,152.0,15
96.0,25.14783382413,60.24,0.036,7.77e-09,686000000.0,152.0,15
97.0,25.1901016235,60.18,0.036,7.77e-09,686000000.0,152.0,15
98.0,25.23159389493,60.12,0.036,7.77e-09,686000000.0,152.0,15
99.0,25.27308616636,60.06,0.036,7.77e-09,686000000.0,152.0,15
100.0,25.31457843779,60.0,0.036,7.77e-09,686000000.0,152.0,15
101.0,25.35607070922,60,0.036,7.77e-09,686000000.0,152.0,15
102.0,25.39756298065,60,0.036,7.77e-09,686000000.0,152.0,15
103.0,25.43905525208,60,0.036,7.77e-09,686000000.0,152.0,15
104.0,25.48054752351,60,0.036,7.77e-09,686000000.0,152.0,15
105.0,25.52203979494,60,0.036,7.77e-09,686000000.0,152.0,15
106.0,25.56353206637,60,0.036,7.77e-09,686000000.0,152.0,15
107.0,25.6050243378,60,0.036,7.77e-09,686000000.0,152.0,15
108.0,25.64611282351,60,0.036,7.77e-09,686000000.0,152.0,15
109.0,25.68720130922,60,0.036,7.77e-09,686000000.0,152.0,15
110.0,25.72828979493,60,0.036,7.77e-09,686000000.0,152.0,15
111.0,25.76937828064,60,0.036,7.77e-09,686000000.0,152.0,15
112.0,25.81046676635,60,0.036,7.77e-09,686000000.0,152.0,15
113.0,25.85155525206,60,0.036,7.77e-09,686000000.0,152.0,15
114.0,25.89264373777,60,0.036,7.77e-09,686000000.0,152.0,15
115.0,25.93373222348,60,0.036,7.77e-09,686000000.0,152.0,15
116.0,25.97482070919,60,0.036,7.77e-09,686000000.0,152.0,15
117.0,26.0159091949,60,0.036,7.77e-09,686000000.0,152.0,15
118.0,26.05652713771,60,0.036,7.77e-09,686000000.0,152.0,15
119.0,26.09714508052,60,0.036,7.77e-09,686000000.0,152.0,15
120.0,26.13776302333,60,0.036,7.77e-09,686000000.0,152.0,15
121.0,26.17838096614,60,0.036,7.77e-09,686000000.0,152.0,15
122.0,26.21899890895,60,0.036,7.77e-09,686000000.0,152.0,15
123.0,26.25961685176,60,0.036,7.77e-09,686000000.0,152.0,15
124.0,26.30023479457,60,0.036,7.77e-09,686000000.0,152.0,15
125.0,26.34085273738,60,0.036,7.77e-09,686000000.0,152.0,15
126.0,26.38147068019,60,0.036,7.77e-09,686000000.0,152.0,15
127.0,26.422088623,60,0.036,7.77e-09,686000000.0,152.0,15
128.0,26.46222629543,60,0.036,7.77e-09,686000000.0,152.0,15
129.0,26.50236396786,60,0.036,7.77e-09,686000000.0,152.0,15
130.0,26.54250164029,60,0.036,7.77e-09,686000000.0,152.0,15
131.0,26.58263931272,60,0.036,7.77e-09,686000000.0,152.0,15
132.0,26.62277698515,60,0.036,7.77e-09,686000000.0,152.0,15
133.0,26.66291465758,60,0.036,7.77e-09,686000000.0,152.0,15
134.0,26.70305233001,60,0.036,7.77e-09,686000000.0,152.0,15
135.0,26.74319000244,60,0.036,7.77e-09,686000000.0,152.0,15
136.0,26.78332767487,60,0.036,7.77e-09,686000000.0,152.0,15
137.0,26.8234653473,60,0.036,7.77e-09,686000000.0,152.0,15
138.0,26.86312465669,60,0.036,7.77e-09,686000000.0,152.0,15
139.0,26.90278396608,60,0.036,7.77e-09,686000000.0,152.0,15
140.0,26.94244327547,60,0.036,7.77e-09,686000000.0,152.0,15
141.0,26.98210258486,60,0.036,7.77e-09,686000000.0,152.0,15
142.0,27.02176189425,60,0.036,7.77e-09,686000000.0,152.0,15
143.0,27.06142120364,60,0.036,7.77e-09,686000000.0,152.0,15
144.0,27.10108051303,60,0.036,7.77e-09,686000000.0,152.0,15
145.0,27.14073982242,60,0.036,7.77e-09,686000000.0,152.0,15
146.0,27.18039913181,60,0.036,7.77e-09,686000000.0,152.0,15
147.0,27.2200584412,60,0.036,7.77e-09,686000000.0,152.0,15
148.0,27.25924396518,60,0.036,7.77e-09,686000000.0,152.0,15
149.0,27.29842948916,60,0.036,7.77e-09,686000000.0,152.0,15
150.0,27.33761501314,60,0.036,7.77e-09,686000000.0,152.0,15
151.0,27.37680053712,60,0.036,7.77e-09,686000000.0,152.0,15
152.0,27.4159860611,60,0.036,7.77e-09,686000000.0,152.0,15
153.0,27.45517158508,60,0.036,7.77e-09,686000000.0,152.0,15
154.0,27.49435710906,60,0.036,7.77e-09,686000000.0,152.0,15
155.0,27.53354263304,60,0.036,7.77e-09,686000000.0,152.0,15
156.0,27.57272815702,60,0.036,7.77e-09,686000000.0,152.0,15
157.0,27.611913681,60,0.036,7.77e-09,686000000.0,152.0,15
158.0,27.6506309509,60,0.036,7.77e-09,686000000.0,152.0,15
159.0,27.6893482208,60,0.036,7.77e-09,686000000.0,152.0,15
160.0,27.7280654907,60,0.036,7.77e-09,686000000.0,152.0,15
161.0,27.7667827606,60,0.036,7.77e-09,686000000.0,152.0,15
162.0,27.8055000305,60,0.036,7.77e-09,686000000.0,152.0,15
163.0,27.8442173004,60,0.036,7.77e-09,686000000.0,152.0,15
164.0,27.8829345703,60,0.036,7.77e-09,686000000.0,152.0,15
165.0,27.9216518402,60,0.036,7.77e-09,686000000.0,152.0,15
166.0,27.9603691101,60,0.036,7.77e-09,686000000.0,152.0,15
167.0,27.99908638,60,0.036,7.77e-09,686000000.0,152.0,15
168.0,28.03734073638,60,0.036,7.77e-09,686000000.0,152.0,15
169.0,28.07559509276,60,0.036,7.77e-09,686000000.0,152.0,15
170.0,28.11384944914,60,0.036,7.77e-09,686000000.0,152.0,15
171.0,28.15210380552,60,0.036,7.77e-09,686000000.0,152.0,15
172.0,28.1903581619,60,0.036,7.77e-09,686000000.0,152.0,15
173.0,28.22861251828,60,0.036,7.77e-09,686000000.0,152.0,15
174.0,28.26686687466,60,0.036,7.77e-09,686000000.0,152.0,15
175.0,28.30512123104,60,0.036,7.77e-09,686000000.0,152.0,15
176.0,28.34337558742,60,0.036,7.77e-09,686000000.0,152.0,15
177.0,28.3816299438,60,0.036,7.77e-09,686000000.0,152.0,15
178.0,28.41942710872,60,0.036,7.77e-09,686000000.0,152.0,15
179.0,28.45722427364,60,0.036,7.77e-09,686000000.0,152.0,15
180.0,28.49502143856,60,0.036,7.77e-09,686000000.0,152.0,15
181.0,28.53281860348,60,0.036,7.77e-09,686000000.0,152.0,15
182.0,28.5706157684,60,0.036,7.77e-09,686000000.0,152.0,15
183.0,28.60841293332,60,0.036,7.77e-09,686000000.0,152.0,15
184.0,28.64621009824,60,0.036,7.77e-09,686000000.0,152.0,15
185.0,28.68400726316,60,0.036,7.77e-09,686000000.0,152.0,15
186.0,28.72180442808,60,0.036,7.77e-09,686000000.0,152.0,15
187.0,28.759601593,60,0.036,7.77e-09,686000000.0,152.0,15
188.0,28.79694671629,60,0.036,7.77e-09,686000000.0,152.0,15
189.0,28.83429183958,60,0.036,7.77e-09,686000000.0,152.0,15
190.0,28.87163696287,60,0.036,7.77e-09,686000000.0,152.0,15
191.0,28.90898208616,60,0.036,7.77e-09,686000000.0,152.0,15
192.0,28.94632720945,60,0.036,7.77e-09,686000000.0,152.0,15
193.0,28.98367233274,60,0.036,7.77e-09,686000000.0,152.0,15
194.0,29.02101745603,60,0.036,7.77e-09,686000000.0,152.0,15
195.0,29.05836257932,60,0.036,7.77e-09,686000000.0,152.0,15
196.0,29.09570770261,60,0.036,7.77e-09,686000000.0,152.0,15
197.0,29.1330528259,60,0.036,7.77e-09,686000000.0,152.0,15
198.0,29.16995162961,60,0.036,7.77e-09,686000000.0,152.0,15
199.0,29.20685043332,60,0.036,7.77e-09,686000000.0,152.0,15
200.0,29.24374923703,60,0.036,7.77e-09,686000000.0,152.0,15
201.0,29.28064804074,60,0.036,7.77e-09,686000000.0,152.0,15
202.0,29.31754684445,60,0.036,7.77e-09,686000000.0,152.0,15
203.0,29.35444564816,60,0.036,7.77e-09,686000000.0,152.0,15
204.0,29.39134445187,60,0.036,7.77e-09,686000000.0,152.0,15
205.0,29.42824325558,60,0.036,7.77e-09,686000000.0,152.0,15
206.0,29.46514205929,60,0.036,7.77e-09,686000000.0,152.0,15
207.0,29.502040863,60,0.036,7.77e-09,686000000.0,152.0,15
208.0,29.53849849698,60,0.036,7.77e-09,686000000.0,152.0,15
209.0,29.57495613096,60,0.036,7.77e-09,686000000.0,152.0,15
210.0,29.61141376494,60,0.036,7.77e-09,686000000.0,152.0,15
211.0,29.64787139892,60,0.036,7.77e-09,686000000.0,152.0,15
212.0,29.6843290329,60,0.036,7.77e-09,686000000.0,152.0,15
213.0,29.72078666688,60,0.036,7.77e-09,686000000.0,152.0,15
214.0,29.75724430086,60,0.036,7.77e-09,686000000.0,152.0,15
215.0,29.79370193484,60,0.036,7.77e-09,686000000.0,152.0,15
216.0,29.83015956882,60,0.036,7.77e-09,686000000.0,152.0,15
217.0,29.8666172028,60,0.036,7.77e-09,686000000.0,152.0,15
218.0,29.90263900761,60,0.036,7.77e-09,686000000.0,152.0,15
219.0,29.93866081242,60,0.036,7.77e-09,686000000.0,152.0,15
220.0,29.97468261723,60,0.036,7.77e-09,686000000.0,152.0,15
221.0,30.01070442204,60,0.036,7.77e-09,686000000.0,152.0,15
222.0,30.04672622685,60,0.036,7.77e-09,686000000.0,152.0,15
223.0,30.08274803166,60,0.036,7.77e-09,686000000.0,152.0,15
224.0,30.11876983647,60,0.036,7.77e-09,686000000.0,152.0,15
225.0,30.15479164128,60,0.036,7.77e-09,686000000.0,152.0,15
226.0,30.19081344609,60,0.036,7.77e-09,686000000.0,152.0,15
227.0,30.2268352509,60,0.036,7.77e-09,686000000.0,152.0,15
228.0,30.26242637638,60,0.036,7.77e-09,686000000.0,152.0,15
229.0,30.29801750186,60,0.036,7.77e-09,686000000.0,152.0,15
230.0,30.33360862734,60,0.036,7.77e-09,686000000.0,152.0,15
231.0,30.36919975282,60,0.036,7.77e-09,686000000.0,152.0,15
232.0,30.4047908783,60,0.036,7.77e-09,686000000.0,152.0,15
233.0,30.44038200378,60,0.036,7.77e-09,686000000.0,152.0,15
234.0,30.47597312926,60,0.036,7.77e-09,686000000.0,152.0,15
235.0,30.51156425474,60,0.036,7.77e-09,686000000.0,152.0,15
236.0,30.54715538022,60,0.036,7.77e-09,686000000.0,152.0,15
237.0,30.5827465057,60,0.036,7.77e-09,686000000.0,152.0,15
238.0,30.61791229245,60,0.036,7.77e-09,686000000.0,152.0,15
239.0,30.6530780792,60,0.036,7.77e-09,686000000.0,152.0,15
240.0,30.68824386595,60,0.036,7.77e-09,686000000.0,152.0,15
241.0,30.7234096527,60,0.036,7.77e-09,686000000.0,152.0,15
242.0,30.75857543945,60,0.036,7.77e-09,686000000.0,152.0,15
243.0,30.7937412262,60,0.036,7.77e-09,686000000.0,152.0,15
244.0,30.82890701295,60,0.036,7.77e-09,686000000.0,152.0,15
245.0,30.8640727997,60,0.036,7.77e-09,686000000.0,152.0,15
246.0,30.89923858645,60,0.036,7.77e-09,686000000.0,152.0,15
247.0,30.9344043732,60,0.036,7.77e-09,686000000.0,152.0,15
248.0,30.9691497803,60,0.036,7.77e-09,686000000.0,152.0,15
249.0,31.0038951874,60,0.036,7.77e-09,686000000.0,152.0,15
250.0,31.0386405945,60,0.036,7.77e-09,686000000.0,152.0,15
251.0,31.0733860016,60,0.036,7.77e-09,686000000.0,152.0,15
252.0,31.1081314087,60,0.036,7.77e-09,686000000.0,152.0,15
253.0,31.1428768158,60,0.036,7.77e-09,686000000.0,152.0,15
254.0,31.1776222229,60,0.036,7.77e-09,686000000.0,152.0,15
255.0,31.21236763,60,0.036,7.77e-09,686000000.0,152.0,15
256.0,31.2471130371,60,0.036,7.77e-09,686000000.0,152.0,15
257.0,31.2818584442,60,0.036,7.77e-09,686000000.0,152.0,15
258.0,31.31618843077,60,0.036,7.77e-09,686000000.0,152.0,15
259.0,31.35051841734,60,0.036,7.77e-09,686000000.0,152.0,15
260.0,31.38484840391,60,0.036,7.77e-09,686000000.0,152.0,15
261.0,31.41917839048,60,0.036,7.77e-09,686000000.0,152.0,15
262.0,31.45350837705,60,0.036,7.77e-09,686000000.0,152.0,15
263.0,31.48783836362,60,0.036,7.77e-09,686000000.0,152.0,15
264.0,31.52216835019,60,0.036,7.77e-09,686000000.0,152.0,15
265.0,31.55649833676,60,0.036,7.77e-09,686000000.0,152.0,15
266.0,31.59082832333,60,0.036,7.77e-09,686000000.0,152.0,15
267.0,31.6251583099,60,0.036,7.77e-09,686000000.0,152.0,15
268.0,31.65907802579,60,0.036,7.77e-09,686000000.0,152.0,15
269.0,31.69299774168,60,0.036,7.77e-09,686000000.0,152.0,15
270.0,31.72691745757,60,0.036,7.77e-09,686000000.0,152.0,15
271.0,31.76083717346,60,0.036,7.77e-09,686000000.0,152.0,15
272.0,31.79475688935,60,0.036,7.77e-09,686000000.0,152.0,15
273.0,31.82867660524,60,0.036,7.77e-09,686000000.0,152.0,15
274.0,31.86259632113,60,0.036,7.77e-09,686000000.0,152.0,15
275.0,31.89651603702,60,0.036,7.77e-09,686000000.0,152.0,15
276.0,31.93043575291,60,0.036,7.77e-09,686000000.0,152.0,15
277.0,31.9643554688,60,0.036,7.77e-09,686000000.0,152.0,15
278.0,31.99786949162,60,0.036,7.77e-09,686000000.0,152.0,15
279.0,32.03138351444,60,0.036,7.77e-09,686000000.0,152.0,15
280.0,32.06489753726,60,0.036,7.77e-09,686000000.0,152.0,15
281.0,32.09841156008,60,0.036,7.77e-09,686000000.0,152.0,15
282.0,32.1319255829,60,0.036,7.77e-09,686000000.0,152.0,15
283.0,32.16543960572,60,0.036,7.77e-09,686000000.0,152.0,15
284.0,32.19895362854,60,0.036,7.77e-09,686000000.0,152.0,15
285.0,32.23246765136,60,0.036,7.77e-09,686000000.0,152.0,15
286.0,32.26598167418,60,0.036,7.77e-09,686000000.0,152.0,15
287.0,32.299495697,60,0.036,7.77e-09,686000000.0,152.0,15
288.0,32.33260917662,60,0.036,7.77e-09,686000000.0,152.0,15
289.0,32.36572265624,60,0.036,7.77e-09,686000000.0,152.0,15
290.0,32.39883613586,60,0.036,7.77e-09,686000000.0,152.0,15
291.0,32.43194961548,60,0.036,7.77e-09,686000000.0,152.0,15
292.0,32.4650630951,60,0.036,7.77e-09,686000000.0,152.0,15
293.0,32.49817657472,60,0.036,7.77e-09,686000000.0,152.0,15
294.0,32.53129005434,60,0.036,7.77e-09,686000000.0,152.0,15
295.0,32.56440353396,60,0.036,7.77e-09,686000000.0,152.0,15
296.0,32.59751701358,60,0.036,7.77e-09,686000000.0,152.0,15
297.0,32.6306304932,60,0.036,7.77e-09,686000000.0,152.0,15
298.0,32.6633483887,60,0.036,7.77e-09,686000000.0,152.0,15
299.0,32.6960662842,60,0.036,7.77e-09,686000000.0,152.0,15
300.0,32.7287841797,60,0.036,7.77e-09,686000000.0,152.0,15
301.0,32.7615020752,60,0.036,7.77e-09,686000000.0,152.0,15
302.0,32.7942199707,60,0.036,7.77e-09,686000000.0,152.0,15
303.0,32.8269378662,60,0.036,7.77e-09,686000000.0,152.0,15
304.0,32.8596557617,60,0.036,7.77e-09,686000000.0,152.0,15
305.0,32.8923736572,60,0.036,7.77e-09,686000000.0,152.0,15
306.0,32.9250915527,60,0.036,7.77e-09,686000000.0,152.0,15
307.0,32.9578094482,60,0.036,7.77e-09,686000000.0,152.0,15
308.0,32.99013595577,60,0.036,7.77e-09,686000000.0,152.0,15
309.0,33.02246246334,60,0.036,7.77e-09,686000000.0,152.0,15
310.0,33.05478897091,60,0.036,7.77e-09,686000000.0,152.0,15
311.0,33.08711547848,60,0.036,7.77e-09,686000000.0,152.0,15
312.0,33.11944198605,60,0.036,7.77e-09,686000000.0,152.0,15
313.0,33.15176849362,60,0.036,7.77e-09,686000000.0,152.0,15
314.0,33.18409500119,60,0.036,7.77e-09,686000000.0,152.0,15
315.0,33.21642150876,60,0.036,7.77e-09,686000000.0,152.0,15
316.0,33.24874801633,60,0.036,7.77e-09,686000000.0,152.0,15
317.0,33.2810745239,60,0.036,7.77e-09,686000000.0,152.0,15
318.0,33.31301460264,60,0.036,7.77e-09,686000000.0,152.0,15
319.0,33.34495468138,60,0.036,7.77e-09,686000000.0,152.0,15
320.0,33.37689476012,60,0.036,7.77e-09,686000000.0,152.0,15
321.0,33.40883483886,60,0.036,7.77e-09,686000000.0,152.0,15
322.0,33.4407749176,60,0.036,7.77e-09,686000000.0,152.0,15
323.0,33.47271499634,60,0.036,7.77e-09,686000000.0,152.0,15
324.0,33.50465507508,60,0.036,7.77e-09,686000000.0,152.0,15
325.0,33.53659515382,60,0.036,7.77e-09,686000000.0,152.0,15
326.0,33.56853523256,60,0.036,7.77e-09,686000000.0,152.0,15
327.0,33.6004753113,60,0.036,7.77e-09,686000000.0,152.0,15
328.0,33.63203353884,60,0.036,7.77e-09,686000000.0,152.0,15
329.0,33.66359176638,60,0.036,7.77e-09,686000000.0,152.0,15
330.0,33.69514999392,60,0.036,7.77e-09,686000000.0,152.0,15
