time,T_int,T_ext_1,Film_Coef,Density,Specific_Heat,Thermal_Conductivity,Radius
1.0,21.9837322235,22.88,0.036,7.37e-09,536000000.0,92.0,25
2.0,21.97057724,23.76,0.036,7.37e-09,536000000.0,92.0,25
3.0,21.9596214294,24.64,0.036,7.37e-09,536000000.0,92.0,25
4.0,21.951464653,25.52,0.036,7.37e-09,536000000.0,92.0,25
5.0,21.9433078766,26.4,0.036,7.37e-09,536000000.0,92.0,25
6.0,21.938847064975,27.28,0.036,7.37e-09,536000000.0,92.0,25
7.0,21.93438625335,28.16,0.036,7.37e-09,536000000.0,92.0,25
8.0,21.929925441725,29.04,0.036,7.37e-09,536000000.0,92.0,25
9.0,21.9254646301,29.92,0.036,7.37e-09,536000000.0,92.0,25
10.0,21.926789283725,30.8,0.036,7.37e-09,536000000.0,92.0,25
11.0,21.92811393735,31.68,0.036,7.37e-09,536000000.0,92.0,25
12.0,21.929438590975,32.56,0.036,7.37e-09,536000000.0,92.0,25
13.0,21.9307632446,33.44,0.036,7.37e-09,536000000.0,92.0,25
14.0,21.932087898225,34.32,0.036,7.37e-09,536000000.0,92.0,25
15.0,21.93341255185,35.2,0.036,7.37e-09,536000000.0,92.0,25
16.0,21.934737205475,36.08,0.036,7.37e-09,536000000.0,92.0,25
17.0,21.9360618591,36.96,0.036,7.37e-09,536000000.0,92.0,25
18.0,21.94402828214,37.84,0.036,7.37e-09,536000000.0,92.0,25
19.0,21.95199470518,38.72,0.036,7.37e-09,536000000.0,92.0,25
20.0,21.95996112822,39.6,0.036,7.37e-09,536000000.0,92.0,25
21.0,21.96792755126,40.48,0.036,7.37e-09,536000000.0,92.0,25
22.0,21.9758939743,41.36,0.036,7.37e-09,536000000.0,92.0,25
23.0,21.98386039734,42.24,0.036,7.37e-09,536000000.0,92.0,25
24.0,21.99182682038,43.12,0.036,7.37e-09,536000000.0,92.0,25
25.0,21.99979324342,44.0,0.036,7.37e-09,536000000.0,92.0,25
26.0,22.00775966646,44.88,0.036,7.37e-09,536000000.0,92.0,25
27.0,22.0157260895,45.76,0.036,7.37e-09,536000000.0,92.0,25
28.0,22.03016262056,46.64,0.036,7.37e-09,536000000.0,92.0,25
29.0,22.04459915162,47.52,0.036,7.37e-09,536000000.0,92.0,25
30.0,22.05903568268,48.4,0.036,7.37e-09,536000000.0,92.0,25
31.0,22.07347221374,49.28,0.036,7.37e-09,536000000.0,92.0,25
32.0,22.0879087448,50.16,0.036,7.37e-09,536000000.0,92.0,25
33.0,22.10234527586,51.04,0.036,7.37e-09,536000000.0,92.0,25
34.0,22.11678180692,51.92,0.036,7.37e-09,536000000.0,92.0,25
35.0,22.13121833798,52.8,0.036,7.37e-09,536000000.0,92.0,25
36.0,22.14565486904,53.68,0.036,7.37e-09,536000000.0,92.0,25
37.0,22.1600914001,54.56,0.036,7.37e-09,536000000.0,92.0,25
38.0,22.18093814846,55.44,0.036,7.37e-09,536000000.0,92.0,25
39.0,22.20178489682,56.32,0.036,7.37e-09,536000000.0,92.0,25
40.0,22.22263164518,57.2,0.036,7.37e-09,536000000.0,92.0,25
41.0,22.24347839354,58.08,0.036,7.37e-09,536000000.0,92.0,25
42.0,22.2643251419,58.96,0.036,7.37e-09,536000000.0,92.0,25
43.0,22.28517189026,59.84,0.036,7.37e-09,536000000.0,92.0,25
44.0,22.30601863862,60.72,0.036,7.37e-09,536000000.0,92.0,25
45.0,22.32686538698,61.6,0.036,7.37e-09,536000000.0,92.0,25
46.0,22.34771213534,62.48,0.036,7.37e-09,536000000.0,92.0,25
47.0,22.3685588837,63.36,0.036,7.37e-09,536000000.0,92.0,25
48.0,22.3900602341,64.24,0.036,7.37e-09,536000000.0,92.0,25
49.0,22.4115615845,65.12,0.036,7.37e-09,536000000.0,92.0,25
50.0,22.4330629349,66.0,0.036,7.37e-09,536000000.0,92.0,25
51.0,22.4545642853,62.94,0.036,7.37e-09,536000000.0,92.0,25
52.0,22.4760656357,62.88,0.036,7.37e-09,536000000.0,92.0,25
53.0,22.4975669861,62.82,0.036,7.37e-09,536000000.0,92.0,25
54.0,22.5190683365,62.76,0.036,7.37e-09,536000000.0,92.0,25
55.0,22.5405696869,62.7,0.036,7.37e-09,536000000.0,92.0,25
56.0,22.5620710373,62.64,0.036,7.37e-09,536000000.0,92.0,25
57.0,22.5835723877,62.58,0.036,7.37e-09,536000000.0,92.0,25
58.0,22.60390338898,62.52,0.036,7.37e-09,536000000.0,92.0,25
59.0,22.62423439026,62.46,0.036,7.37e-09,536000000.0,92.0,25
60.0,22.64456539154,62.4,0.036,7.37e-09,536000000.0,92.0,25
61.0,22.66489639282,62.34,0.036,7.37e-09,536000000.0,92.0,25
62.0,22.6852273941,62.28,0.036,7.37e-09,536000000.0,92.0,25
63.0,22.70555839538,62.22,0.036,7.37e-09,536000000.0,92.0,25
64.0,22.72588939666,62.16,0.036,7.37e-09,536000000.0,92.0,25
65.0,22.74622039794,62.1,0.036,7.37e-09,536000000.0,92.0,25
66.0,22.76655139922,62.04,0.036,7.37e-09,536000000.0,92.0,25
67.0,22.7868824005,61.98,0.036,7.37e-09,536000000.0,92.0,25
68.0,22.8064470291,61.92,0.036,7.37e-09,536000000.0,92.0,25
69.0,22.8260116577,61.86,0.036,7.37e-09,536000000.0,92.0,25
70.0,22.8455762863,61.8,0.036,7.37e-09,536000000.0,92.0,25
71.0,22.8651409149,61.74,0.036,7.37e-09,536000000.0,92.0,25
72.0,22.8847055435,61.68,0.036,7.37e-09,536000000.0,92.0,25
73.0,22.9042701721,61.62,0.036,7.37e-09,536000000.0,92.0,25
74.0,22.9238348007,61.56,0.036,7.37e-09,536000000.0,92.0,25
75.0,22.9433994293,61.5,0.036,7.37e-09,536000000.0,92.0,25
76.0,22.9629640579,61.44,0.036,7.37e-09,536000000.0,92.0,25
77.0,22.9825286865,61.38,0.036,7.37e-09,536000000.0,92.0,25
78.0,23.00141315458,61.32,0.036,7.37e-09,536000000.0,92.0,25
79.0,23.02029762266,61.26,0.036,7.37e-09,536000000.0,92.0,25
80.0,23.03918209074,61.2,0.036,7.37e-09,536000000.0,92.0,25
81.0,23.05806655882,61.14,0.036,7.37e-09,536000000.0,92.0,25
82.0,23.0769510269,61.08,0.036,7.37e-09,536000000.0,92.0,25
83.0,23.09583549498,61.02,0.036,7.37e-09,536000000.0,92.0,25
84.0,23.11471996306,60.96,0.036,7.37e-09,536000000.0,92.0,25
85.0,23.13360443114,60.9,0.036,7.37e-09,536000000.0,92.0,25
86.0,23.15248889922,60.84,0.036,7.37e-09,536000000.0,92.0,25
87.0,23.1713733673,60.78,0.036,7.37e-09,536000000.0,92.0,25
88.0,23.1895954132,60.72,0.036,7.37e-09,536000000.0,92.0,25
89.0,23.2078174591,60.66,0.036,7.37e-09,536000000.0,92.0,25
90.0,23.226039505,60.6,0.036,7.37e-09,536000000.0,92.0,25
91.0,23.2442615509,60.54,0.036,7.37e-09,536000000.0,92.0,25
92.0,23.2624835968,60.48,0.036,7.37e-09,536000000.0,92.0,25
93.0,23.2807056427,60.42,0.036,7.37e-09,536000000.0,92.0,25
94.0,23.2989276886,60.36,0.036,7.37e-09,536000000.0,92.0,25
95.0,23.3171497345,60.3,0.036,7.37e-09,536000000.0,92.0,25
96.0,23.3353717804,60.24,0.036,7.37e-09,536000000.0,92.0,25
97.0,23.3535938263,60.18,0.036,7.37e-09,536000000.0,92.0,25
98.0,23.37163219452,60.12,0.036,7.37e-09,536000000.0,92.0,25
99.0,23.38967056274,60.06,0.036,7.37e-09,536000000.0,92.0,25
100.0,23.40770893096,60.0,0.036,7.37e-09,536000000.0,92.0,25
101.0,23.42574729918,60,0.036,7.37e-09,536000000.0,92.0,25
102.0,23.4437856674,60,0.036,7.37e-09,536000000.0,92.0,25
103.0,23.46182403562,60,0.036,7.37e-09,536000000.0,92.0,25
104.0,23.47986240384,60,0.036,7.37e-09,536000000.0,92.0,25
105.0,23.49790077206,60,0.036,7.37e-09,536000000.0,92.0,25
106.0,23.51593914028,60,0.036,7.37e-09,536000000.0,92.0,25
107.0,23.5339775085,60,0.036,7.37e-09,536000000.0,92.0,25
108.0,23.55198097225,60,0.036,7.37e-09,536000000.0,92.0,25
109.0,23.569984436,60,0.036,7.37e-09,536000000.0,92.0,25
110.0,23.58798789975,60,0.036,7.37e-09,536000000.0,92.0,25
111.0,23.6059913635,60,0.036,7.37e-09,536000000.0,92.0,25
112.0,23.62399482725,60,0.036,7.37e-09,536000000.0,92.0,25
113.0,23.641998291,60,0.036,7.37e-09,536000000.0,92.0,25
114.0,23.66000175475,60,0.036,7.37e-09,536000000.0,92.0,25
115.0,23.6780052185,60,0.036,7.37e-09,536000000.0,92.0,25
116.0,23.69600868225,60,0.036,7.37e-09,536000000.0,92.0,25
117.0,23.714012146,60,0.036,7.37e-09,536000000.0,92.0,25
118.0,23.73194351197,60,0.036,7.37e-09,536000000.0,92.0,25
119.0,23.74987487794,60,0.036,7.37e-09,536000000.0,92.0,25
120.0,23.76780624391,60,0.036,7.37e-09,536000000.0,92.0,25
121.0,23.78573760988,60,0.036,7.37e-09,536000000.0,92.0,25
122.0,23.80366897585,60,0.036,7.37e-09,536000000.0,92.0,25
123.0,23.82160034182,60,0.036,7.37e-09,536000000.0,92.0,25
124.0,23.83953170779,60,0.036,7.37e-09,536000000.0,92.0,25
125.0,23.85746307376,60,0.036,7.37e-09,536000000.0,92.0,25
126.0,23.87539443973,60,0.036,7.37e-09,536000000.0,92.0,25
127.0,23.8933258057,60,0.036,7.37e-09,536000000.0,92.0,25
128.0,23.91117515567,60,0.036,7.37e-09,536000000.0,92.0,25
129.0,23.92902450564,60,0.036,7.37e-09,536000000.0,92.0,25
130.0,23.94687385561,60,0.036,7.37e-09,536000000.0,92.0,25
131.0,23.96472320558,60,0.036,7.37e-09,536000000.0,92.0,25
132.0,23.98257255555,60,0.036,7.37e-09,536000000.0,92.0,25
133.0,24.00042190552,60,0.036,7.37e-09,536000000.0,92.0,25
134.0,24.01827125549,60,0.036,7.37e-09,536000000.0,92.0,25
135.0,24.03612060546,60,0.036,7.37e-09,536000000.0,92.0,25
136.0,24.05396995543,60,0.036,7.37e-09,536000000.0,92.0,25
137.0,24.0718193054,60,0.036,7.37e-09,536000000.0,92.0,25
138.0,24.08958358763,60,0.036,7.37e-09,536000000.0,92.0,25
139.0,24.10734786986,60,0.036,7.37e-09,536000000.0,92.0,25
140.0,24.12511215209,60,0.036,7.37e-09,536000000.0,92.0,25
141.0,24.14287643432,60,0.036,7.37e-09,536000000.0,92.0,25
142.0,24.16064071655,60,0.036,7.37e-09,536000000.0,92.0,25
143.0,24.17840499878,60,0.036,7.37e-09,536000000.0,92.0,25
144.0,24.19616928101,60,0.036,7.37e-09,536000000.0,92.0,25
145.0,24.21393356324,60,0.036,7.37e-09,536000000.0,92.0,25
146.0,24.23169784547,60,0.036,7.37e-09,536000000.0,92.0,25
147.0,24.2494621277,60,0.036,7.37e-09,536000000.0,92.0,25
148.0,24.26714057924,60,0.036,7.37e-09,536000000.0,92.0,25
149.0,24.28481903078,60,0.036,7.37e-09,536000000.0,92.0,25
150.0,24.30249748232,60,0.036,7.37e-09,536000000.0,92.0,25
151.0,24.32017593386,60,0.036,7.37e-09,536000000.0,92.0,25
152.0,24.3378543854,60,0.036,7.37e-09,536000000.0,92.0,25
153.0,24.35553283694,60,0.036,7.37e-09,536000000.0,92.0,25
154.0,24.37321128848,60,0.036,7.37e-09,536000000.0,92.0,25
155.0,24.39088974002,60,0.036,7.37e-09,536000000.0,92.0,25
156.0,24.40856819156,60,0.036,7.37e-09,536000000.0,92.0,25
157.0,24.4262466431,60,0.036,7.37e-09,536000000.0,92.0,25
158.0,24.44383850101,60,0.036,7.37e-09,536000000.0,92.0,25
159.0,24.46143035892,60,0.036,7.37e-09,536000000.0,92.0,25
160.0,24.47902221683,60,0.036,7.37e-09,536000000.0,92.0,25
161.0,24.49661407474,60,0.036,7.37e-09,536000000.0,92.0,25
162.0,24.51420593265,60,0.036,7.37e-09,536000000.0,92.0,25
163.0,24.53179779056,60,0.036,7.37e-09,536000000.0,92.0,25
164.0,24.54938964847,60,0.036,7.37e-09,536000000.0,92.0,25
165.0,24.56698150638,60,0.036,7.37e-09,536000000.0,92.0,25
166.0,24.58457336429,60,0.036,7.37e-09,536000000.0,92.0,25
167.0,24.6021652222,60,0.036,7.37e-09,536000000.0,92.0,25
168.0,24.61967067721,60,0.036,7.37e-09,536000000.0,92.0,25
169.0,24.63717613222,60,0.036,7.37e-09,536000000.0,92.0,25
170.0,24.65468158723,60,0.036,7.37e-09,536000000.0,92.0,25
171.0,24.67218704224,60,0.036,7.37e-09,536000000.0,92.0,25
172.0,24.68969249725,60,0.036,7.37e-09,536000000.0,92.0,25
173.0,24.70719795226,60,0.036,7.37e-09,536000000.0,92.0,25
174.0,24.72470340727,60,0.036,7.37e-09,536000000.0,92.0,25
175.0,24.74220886228,60,0.036,7.37e-09,536000000.0,92.0,25
176.0,24.75971431729,60,0.036,7.37e-09,536000000.0,92.0,25
177.0,24.7772197723,60,0.036,7.37e-09,536000000.0,92.0,25
178.0,24.7946392059,60,0.036,7.37e-09,536000000.0,92.0,25
179.0,24.8120586395,60,0.036,7.37e-09,536000000.0,92.0,25
180.0,24.8294780731,60,0.036,7.37e-09,536000000.0,92.0,25
181.0,24.8468975067,60,0.036,7.37e-09,536000000.0,92.0,25
182.0,24.8643169403,60,0.036,7.37e-09,536000000.0,92.0,25
183.0,24.8817363739,60,0.036,7.37e-09,536000000.0,92.0,25
184.0,24.8991558075,60,0.036,7.37e-09,536000000.0,92.0,25
185.0,24.9165752411,60,0.036,7.37e-09,536000000.0,92.0,25
186.0,24.9339946747,60,0.036,7.37e-09,536000000.0,92.0,25
187.0,24.9514141083,60,0.036,7.37e-09,536000000.0,92.0,25
188.0,24.96874752047,60,0.036,7.37e-09,536000000.0,92.0,25
189.0,24.98608093264,60,0.036,7.37e-09,536000000.0,92.0,25
190.0,25.00341434481,60,0.036,7.37e-09,536000000.0,92.0,25
191.0,25.02074775698,60,0.036,7.37e-09,536000000.0,92.0,25
192.0,25.03808116915,60,0.036,7.37e-09,536000000.0,92.0,25
193.0,25.05541458132,60,0.036,7.37e-09,536000000.0,92.0,25
194.0,25.07274799349,60,0.036,7.37e-09,536000000.0,92.0,25
195.0,25.09008140566,60,0.036,7.37e-09,536000000.0,92.0,25
196.0,25.10741481783,60,0.036,7.37e-09,536000000.0,92.0,25
197.0,25.12474823,60,0.036,7.37e-09,536000000.0,92.0,25
198.0,25.14199619295,60,0.036,7.37e-09,536000000.0,92.0,25
199.0,25.1592441559,60,0.036,7.37e-09,536000000.0,92.0,25
200.0,25.17649211885,60,0.036,7.37e-09,536000000.0,92.0,25
201.0,25.1937400818,60,0.036,7.37e-09,536000000.0,92.0,25
202.0,25.21098804475,60,0.036,7.37e-09,536000000.0,92.0,25
203.0,25.2282360077,60,0.036,7.37e-09,536000000.0,92.0,25
204.0,25.24548397065,60,0.036,7.37e-09,536000000.0,92.0,25
205.0,25.2627319336,60,0.036,7.37e-09,536000000.0,92.0,25
206.0,25.27997989655,60,0.036,7.37e-09,536000000.0,92.0,25
207.0,25.2972278595,60,0.036,7.37e-09,536000000.0,92.0,25
208.0,25.3143907547,60,0.036,7.37e-09,536000000.0,92.0,25
209.0,25.3315536499,60,0.036,7.37e-09,536000000.0,92.0,25
210.0,25.3487165451,60,0.036,7.37e-09,536000000.0,92.0,25
211.0,25.3658794403,60,0.036,7.37e-09,536000000.0,92.0,25
212.0,25.3830423355,60,0.036,7.37e-09,536000000.0,92.0,25
213.0,25.4002052307,60,0.036,7.37e-09,536000000.0,92.0,25
214.0,25.4173681259,60,0.036,7.37e-09,536000000.0,92.0,25
215.0,25.4345310211,60,0.036,7.37e-09,536000000.0,92.0,25
216.0,25.4516939163,60,0.036,7.37e-09,536000000.0,92.0,25
217.0,25.4688568115,60,0.036,7.37e-09,536000000.0,92.0,25
218.0,25.48593482969,60,0.036,7.37e-09,536000000.0,92.0,25
219.0,25.50301284788,60,0.036,7.37e-09,536000000.0,92.0,25
220.0,25.52009086607,60,0.036,7.37e-09,536000000.0,92.0,25
221.0,25.53716888426,60,0.036,7.37e-09,536000000.0,92.0,25
222.0,25.55424690245,60,0.036,7.37e-09,536000000.0,92.0,25
223.0,25.57132492064,60,0.036,7.37e-09,536000000.0,92.0,25
224.0,25.58840293883,60,0.036,7.37e-09,536000000.0,92.0,25
225.0,25.60548095702,60,0.036,7.37e-09,536000000.0,92.0,25
226.0,25.62255897521,60,0.036,7.37e-09,536000000.0,92.0,25
227.0,25.6396369934,60,0.036,7.37e-09,536000000.0,92.0,25
228.0,25.65663051604,60,0.036,7.37e-09,536000000.0,92.0,25
229.0,25.67362403868,60,0.036,7.37e-09,536000000.0,92.0,25
230.0,25.69061756132,60,0.036,7.37e-09,536000000.0,92.0,25
231.0,25.70761108396,60,0.036,7.37e-09,536000000.0,92.0,25
232.0,25.7246046066,60,0.036,7.37e-09,536000000.0,92.0,25
233.0,25.74159812924,60,0.036,7.37e-09,536000000.0,92.0,25
234.0,25.75859165188,60,0.036,7.37e-09,536000000.0,92.0,25
235.0,25.77558517452,60,0.036,7.37e-09,536000000.0,92.0,25
236.0,25.79257869716,60,0.036,7.37e-09,536000000.0,92.0,25
237.0,25.8095722198,60,0.036,7.37e-09,536000000.0,92.0,25
238.0,25.82648181911,60,0.036,7.37e-09,536000000.0,92.0,25
239.0,25.84339141842,60,0.036,7.37e-09,536000000.0,92.0,25
240.0,25.86030101773,60,0.036,7.37e-09,536000000.0,92.0,25
241.0,25.87721061704,60,0.036,7.37e-09,536000000.0,92.0,25
242.0,25.89412021635,60,0.036,7.37e-09,536000000.0,92.0,25
243.0,25.91102981566,60,0.036,7.37e-09,536000000.0,92.0,25
244.0,25.92793941497,60,0.036,7.37e-09,536000000.0,92.0,25
245.0,25.94484901428,60,0.036,7.37e-09,536000000.0,92.0,25
246.0,25.96175861359,60,0.036,7.37e-09,536000000.0,92.0,25
247.0,25.9786682129,60,0.036,7.37e-09,536000000.0,92.0,25
248.0,25.99549427033,60,0.036,7.37e-09,536000000.0,92.0,25
249.0,26.01232032776,60,0.036,7.37e-09,536000000.0,92.0,25
250.0,26.02914638519,60,0.036,7.37e-09,536000000.0,92.0,25
251.0,26.04597244262,60,0.036,7.37e-09,536000000.0,92.0,25
252.0,26.06279850005,60,0.036,7.37e-09,536000000.0,92.0,25
253.0,26.07962455748,60,0.036,7.37e-09,536000000.0,92.0,25
254.0,26.09645061491,60,0.036,7.37e-09,536000000.0,92.0,25
255.0,26.11327667234,60,0.036,7.37e-09,536000000.0,92.0,25
256.0,26.13010272977,60,0.036,7.37e-09,536000000.0,92.0,25
257.0,26.1469287872,60,0.036,7.37e-09,536000000.0,92.0,25
258.0,26.1636714935,60,0.036,7.37e-09,536000000.0,92.0,25
259.0,26.1804141998,60,0.036,7.37e-09,536000000.0,92.0,25
260.0,26.1971569061,60,0.036,7.37e-09,536000000.0,92.0,25
261.0,26.2138996124,60,0.036,7.37e-09,536000000.0,92.0,25
262.0,26.2306423187,60,0.036,7.37e-09,536000000.0,92.0,25
263.0,26.247385025,60,0.036,7.37e-09,536000000.0,92.0,25
264.0,26.2641277313,60,0.036,7.37e-09,536000000.0,92.0,25
265.0,26.2808704376,60,0.036,7.37e-09,536000000.0,92.0,25
266.0,26.2976131439,60,0.036,7.37e-09,536000000.0,92.0,25
267.0,26.3143558502,60,0.036,7.37e-09,536000000.0,92.0,25
268.0,26.3310159683,60,0.036,7.37e-09,536000000.0,92.0,25
269.0,26.3476760864,60,0.036,7.37e-09,536000000.0,92.0,25
270.0,26.3643362045,60,0.036,7.37e-09,536000000.0,92.0,25
271.0,26.3809963226,60,0.036,7.37e-09,536000000.0,92.0,25
272.0,26.3976564407,60,0.036,7.37e-09,536000000.0,92.0,25
273.0,26.4143165588,60,0.036,7.37e-09,536000000.0,92.0,25
274.0,26.4309766769,60,0.036,7.37e-09,536000000.0,92.0,25
275.0,26.447636795,60,0.036,7.37e-09,536000000.0,92.0,25
276.0,26.4642969131,60,0.036,7.37e-09,536000000.0,92.0,25
277.0,26.4809570312,60,0.036,7.37e-09,536000000.0,92.0,25
278.0,26.49753456111,60,0.036,7.37e-09,536000000.0,92.0,25
279.0,26.51411209102,60,0.036,7.37e-09,536000000.0,92.0,25
280.0,26.53068962093,60,0.036,7.37e-09,536000000.0,92.0,25
281.0,26.54726715084,60,0.036,7.37e-09,536000000.0,92.0,25
282.0,26.56384468075,60,0.036,7.37e-09,536000000.0,92.0,25
283.0,26.58042221066,60,0.036,7.37e-09,536000000.0,92.0,25
284.0,26.59699974057,60,0.036,7.37e-09,536000000.0,92.0,25
285.0,26.61357727048,60,0.036,7.37e-09,536000000.0,92.0,25
286.0,26.63015480039,60,0.036,7.37e-09,536000000.0,92.0,25
287.0,26.6467323303,60,0.036,7.37e-09,536000000.0,92.0,25
288.0,26.66322803495,60,0.036,7.37e-09,536000000.0,92.0,25
289.0,26.6797237396,60,0.036,7.37e-09,536000000.0,92.0,25
290.0,26.69621944425,60,0.036,7.37e-09,536000000.0,92.0,25
291.0,26.7127151489,60,0.036,7.37e-09,536000000.0,92.0,25
292.0,26.72921085355,60,0.036,7.37e-09,536000000.0,92.0,25
293.0,26.7457065582,60,0.036,7.37e-09,536000000.0,92.0,25
294.0,26.76220226285,60,0.036,7.37e-09,536000000.0,92.0,25
295.0,26.7786979675,60,0.036,7.37e-09,536000000.0,92.0,25
296.0,26.79519367215,60,0.036,7.37e-09,536000000.0,92.0,25
297.0,26.8116893768,60,0.036,7.37e-09,536000000.0,92.0,25
298.0,26.82810344693,60,0.036,7.37e-09,536000000.0,92.0,25
299.0,26.84451751706,60,0.036,7.37e-09,536000000.0,92.0,25
300.0,26.86093158719,60,0.036,7.37e-09,536000000.0,92.0,25
301.0,26.87734565732,60,0.036,7.37e-09,536000000.0,92.0,25
302.0,26.89375972745,60,0.036,7.37e-09,536000000.0,92.0,25
303.0,26.91017379758,60,0.036,7.37e-09,536000000.0,92.0,25
304.0,26.92658786771,60,0.036,7.37e-09,536000000.0,92.0,25
305.0,26.94300193784,60,0.036,7.37e-09,536000000.0,92.0,25
306.0,26.95941600797,60,0.036,7.37e-09,536000000.0,92.0,25
307.0,26.9758300781,60,0.036,7.37e-09,536000000.0,92.0,25
308.0,26.99216289518,60,0.036,7.37e-09,536000000.0,92.0,25
309.0,27.00849571226,60,0.036,7.37e-09,536000000.0,92.0,25
310.0,27.02482852934,60,0.036,7.37e-09,536000000.0,92.0,25
311.0,27.04116134642,60,0.036,7.37e-09,536000000.0,92.0,25
312.0,27.0574941635,60,0.036,7.37e-09,536000000.0,92.0,25
313.0,27.07382698058,60,0.036,7.37e-09,536000000.0,92.0,25
314.0,27.09015979766,60,0.036,7.37e-09,536000000.0,92.0,25
315.0,27.10649261474,60,0.036,7.37e-09,536000000.0,92.0,25
316.0,27.12282543182,60,0.036,7.37e-09,536000000.0,92.0,25
317.0,27.1391582489,60,0.036,7.37e-09,536000000.0,92.0,25
318.0,27.15541038513,60,0.036,7.37e-09,536000000.0,92.0,25
319.0,27.17166252136,60,0.036,7.37e-09,536000000.0,92.0,25
320.0,27.18791465759,60,0.036,7.37e-09,536000000.0,92.0,25
321.0,27.20416679382,60,0.036,7.37e-09,536000000.0,92.0,25
322.0,27.22041893005,60,0.036,7.37e-09,536000000.0,92.0,25
323.0,27.23667106628,60,0.036,7.37e-09,536000000.0,92.0,25
324.0,27.25292320251,60,0.036,7.37e-09,536000000.0,92.0,25
325.0,27.26917533874,60,0.036,7.37e-09,536000000.0,92.0,25
326.0,27.28542747497,60,0.036,7.37e-09,536000000.0,92.0,25
327.0,27.3016796112,60,0.036,7.37e-09,536000000.0,92.0,25
328.0,27.31785125732,60,0.036,7.37e-09,536000000.0,92.0,25
329.0,27.33402290344,60,0.036,7.37e-09,536000000.0,92.0,25
330.0,27.35019454956,60,0.036,7.37e-09,536000000.0,92.0,25
331.0,27.36636619568,60,0.036,7.37e-09,536000000.0,92.0,25
332.0,27.3825378418,60,0.036,7.37e-09,536000000.0,92.0,25
333.0,27.39870948792,60,0.036,7.37e-09,536000000.0,92.0,25
334.0,27.41488113404,60,0.036,7.37e-09,536000000.0,92.0,25
335.0,27.43105278016,60,0.036,7.37e-09,536000000.0,92.0,25
336.0,27.44722442628,60,0.036,7.37e-09,536000000.0,92.0,25
