time,T_int,T_ext_1,Film_Coef,Density,Specific_Heat,Thermal_Conductivity,Radius
1.0,21.9522914886,22.88,0.036,7.97e-09,586000000.0,52.0,15
2.0,21.9118537903,23.76,0.036,7.97e-09,586000000.0,52.0,15
3.0,21.8774833679,24.64,0.036,7.97e-09,586000000.0,52.0,15
4.0,21.85216140745,25.52,0.036,7.97e-09,586000000.0,52.0,15
5.0,21.826839447,26.4,0.036,7.97e-09,586000000.0,52.0,15
6.0,21.813989639275,27.28,0.036,7.97e-09,586000000.0,52.0,15
7.0,21.80113983155,28.16,0.036,7.97e-09,586000000.0,52.0,15
8.0,21.788290023825,29.04,0.036,7.97e-09,586000000.0,52.0,15
9.0,21.7754402161,29.92,0.036,7.97e-09,586000000.0,52.0,15
10.0,21.7805988788875,30.8,0.036,7.97e-09,586000000.0,52.0,15
11.0,21.785757541675,31.68,0.036,7.97e-09,586000000.0,52.0,15
12.0,21.7909162044625,32.56,0.036,7.97e-09,586000000.0,52.0,15
13.0,21.79607486725,33.44,0.036,7.97e-09,586000000.0,52.0,15
14.0,21.8012335300375,34.32,0.036,7.97e-09,586000000.0,52.0,15
15.0,21.806392192825,35.2,0.036,7.97e-09,586000000.0,52.0,15
16.0,21.8115508556125,36.08,0.036,7.97e-09,586000000.0,52.0,15
17.0,21.8167095184,36.96,0.036,7.97e-09,586000000.0,52.0,15
18.0,21.84099483487,37.84,0.036,7.97e-09,586000000.0,52.0,15
19.0,21.86528015134,38.72,0.036,7.97e-09,586000000.0,52.0,15
20.0,21.88956546781,39.6,0.036,7.97e-09,586000000.0,52.0,15
21.0,21.91385078428,40.48,0.036,7.97e-09,586000000.0,52.0,15
22.0,21.93813610075,41.36,0.036,7.97e-09,586000000.0,52.0,15
23.0,21.96242141722,42.24,0.036,7.97e-09,586000000.0,52.0,15
24.0,21.98670673369,43.12,0.036,7.97e-09,586000000.0,52.0,15
25.0,22.01099205016,44.0,0.036,7.97e-09,586000000.0,52.0,15
26.0,22.03527736663,44.88,0.036,7.97e-09,586000000.0,52.0,15
27.0,22.0595626831,45.76,0.036,7.97e-09,586000000.0,52.0,15
28.0,22.10162639617,46.64,0.036,7.97e-09,586000000.0,52.0,15
29.0,22.14369010924,47.52,0.036,7.97e-09,586000000.0,52.0,15
30.0,22.18575382231,48.4,0.036,7.97e-09,586000000.0,52.0,15
31.0,22.22781753538,49.28,0.036,7.97e-09,586000000.0,52.0,15
32.0,22.26988124845,50.16,0.036,7.97e-09,586000000.0,52.0,15
33.0,22.31194496152,51.04,0.036,7.97e-09,586000000.0,52.0,15
34.0,22.35400867459,51.92,0.036,7.97e-09,586000000.0,52.0,15
35.0,22.39607238766,52.8,0.036,7.97e-09,586000000.0,52.0,15
36.0,22.43813610073,53.68,0.036,7.97e-09,586000000.0,52.0,15
37.0,22.4801998138,54.56,0.036,7.97e-09,586000000.0,52.0,15
38.0,22.53936119076,55.44,0.036,7.97e-09,586000000.0,52.0,15
39.0,22.59852256772,56.32,0.036,7.97e-09,586000000.0,52.0,15
40.0,22.65768394468,57.2,0.036,7.97e-09,586000000.0,52.0,15
41.0,22.71684532164,58.08,0.036,7.97e-09,586000000.0,52.0,15
42.0,22.7760066986,58.96,0.036,7.97e-09,586000000.0,52.0,15
43.0,22.83516807556,59.84,0.036,7.97e-09,586000000.0,52.0,15
44.0,22.89432945252,60.72,0.036,7.97e-09,586000000.0,52.0,15
45.0,22.95349082948,61.6,0.036,7.97e-09,586000000.0,52.0,15
46.0,23.01265220644,62.48,0.036,7.97e-09,586000000.0,52.0,15
47.0,23.0718135834,63.36,0.036,7.97e-09,586000000.0,52.0,15
48.0,23.1307727814,64.24,0.036,7.97e-09,586000000.0,52.0,15
49.0,23.1897319794,65.12,0.036,7.97e-09,586000000.0,52.0,15
50.0,23.2486911774,66.0,0.036,7.97e-09,586000000.0,52.0,15
51.0,23.3076503754,62.94,0.036,7.97e-09,586000000.0,52.0,15
52.0,23.3666095734,62.88,0.036,7.97e-09,586000000.0,52.0,15
53.0,23.4255687714,62.82,0.036,7.97e-09,586000000.0,52.0,15
54.0,23.4845279694,62.76,0.036,7.97e-09,586000000.0,52.0,15
55.0,23.5434871674,62.7,0.036,7.97e-09,586000000.0,52.0,15
56.0,23.6024463654,62.64,0.036,7.97e-09,586000000.0,52.0,15
57.0,23.6614055634,62.58,0.036,7.97e-09,586000000.0,52.0,15
58.0,23.71526298527,62.52,0.036,7.97e-09,586000000.0,52.0,15
59.0,23.76912040714,62.46,0.036,7.97e-09,586000000.0,52.0,15
60.0,23.82297782901,62.4,0.036,7.97e-09,586000000.0,52.0,15
61.0,23.87683525088,62.34,0.036,7.97e-09,586000000.0,52.0,15
62.0,23.93069267275,62.28,0.036,7.97e-09,586000000.0,52.0,15
63.0,23.98455009462,62.22,0.036,7.97e-09,586000000.0,52.0,15
64.0,24.03840751649,62.16,0.036,7.97e-09,586000000.0,52.0,15
65.0,24.09226493836,62.1,0.036,7.97e-09,586000000.0,52.0,15
66.0,24.14612236023,62.04,0.036,7.97e-09,586000000.0,52.0,15
67.0,24.1999797821,61.98,0.036,7.97e-09,586000000.0,52.0,15
68.0,24.25057697296,61.92,0.036,7.97e-09,586000000.0,52.0,15
69.0,24.30117416382,61.86,0.036,7.97e-09,586000000.0,52.0,15
70.0,24.35177135468,61.8,0.036,7.97e-09,586000000.0,52.0,15
71.0,24.40236854554,61.74,0.036,7.97e-09,586000000.0,52.0,15
72.0,24.4529657364,61.68,0.036,7.97e-09,586000000.0,52.0,15
73.0,24.50356292726,61.62,0.036,7.97e-09,586000000.0,52.0,15
74.0,24.55416011812,61.56,0.036,7.97e-09,586000000.0,52.0,15
75.0,24.60475730898,61.5,0.036,7.97e-09,586000000.0,52.0,15
76.0,24.65535449984,61.44,0.036,7.97e-09,586000000.0,52.0,15
77.0,24.7059516907,61.38,0.036,7.97e-09,586000000.0,52.0,15
78.0,24.75394001009,61.32,0.036,7.97e-09,586000000.0,52.0,15
79.0,24.80192832948,61.26,0.036,7.97e-09,586000000.0,52.0,15
80.0,24.84991664887,61.2,0.036,7.97e-09,586000000.0,52.0,15
81.0,24.89790496826,61.14,0.036,7.97e-09,586000000.0,52.0,15
82.0,24.94589328765,61.08,0.036,7.97e-09,586000000.0,52.0,15
83.0,24.99388160704,61.02,0.036,7.97e-09,586000000.0,52.0,15
84.0,25.04186992643,60.96,0.036,7.97e-09,586000000.0,52.0,15
85.0,25.08985824582,60.9,0.036,7.97e-09,586000000.0,52.0,15
86.0,25.13784656521,60.84,0.036,7.97e-09,586000000.0,52.0,15
87.0,25.1858348846,60.78,0.036,7.97e-09,586000000.0,52.0,15
88.0,25.23149032589,60.72,0.036,7.97e-09,586000000.0,52.0,15
89.0,25.27714576718,60.66,0.036,7.97e-09,586000000.0,52.0,15
90.0,25.32280120847,60.6,0.036,7.97e-09,586000000.0,52.0,15
91.0,25.36845664976,60.54,0.036,7.97e-09,586000000.0,52.0,15
92.0,25.41411209105,60.48,0.036,7.97e-09,586000000.0,52.0,15
93.0,25.45976753234,60.42,0.036,7.97e-09,586000000.0,52.0,15
94.0,25.50542297363,60.36,0.036,7.97e-09,586000000.0,52.0,15
95.0,25.55107841492,60.3,0.036,7.97e-09,586000000.0,52.0,15
96.0,25.59673385621,60.24,0.036,7.97e-09,586000000.0,52.0,15
97.0,25.6423892975,60.18,0.036,7.97e-09,586000000.0,52.0,15
98.0,25.68725280763,60.12,0.036,7.97e-09,586000000.0,52.0,15
99.0,25.73211631776,60.06,0.036,7.97e-09,586000000.0,52.0,15
100.0,25.77697982789,60.0,0.036,7.97e-09,586000000.0,52.0,15
101.0,25.82184333802,60,0.036,7.97e-09,586000000.0,52.0,15
102.0,25.86670684815,60,0.036,7.97e-09,586000000.0,52.0,15
103.0,25.91157035828,60,0.036,7.97e-09,586000000.0,52.0,15
104.0,25.95643386841,60,0.036,7.97e-09,586000000.0,52.0,15
105.0,26.00129737854,60,0.036,7.97e-09,586000000.0,52.0,15
106.0,26.04616088867,60,0.036,7.97e-09,586000000.0,52.0,15
107.0,26.0910243988,60,0.036,7.97e-09,586000000.0,52.0,15
108.0,26.13555145263,60,0.036,7.97e-09,586000000.0,52.0,15
109.0,26.18007850646,60,0.036,7.97e-09,586000000.0,52.0,15
110.0,26.22460556029,60,0.036,7.97e-09,586000000.0,52.0,15
111.0,26.26913261412,60,0.036,7.97e-09,586000000.0,52.0,15
112.0,26.31365966795,60,0.036,7.97e-09,586000000.0,52.0,15
113.0,26.35818672178,60,0.036,7.97e-09,586000000.0,52.0,15
114.0,26.40271377561,60,0.036,7.97e-09,586000000.0,52.0,15
115.0,26.44724082944,60,0.036,7.97e-09,586000000.0,52.0,15
116.0,26.49176788327,60,0.036,7.97e-09,586000000.0,52.0,15
117.0,26.5362949371,60,0.036,7.97e-09,586000000.0,52.0,15
118.0,26.58035488126,60,0.036,7.97e-09,586000000.0,52.0,15
119.0,26.62441482542,60,0.036,7.97e-09,586000000.0,52.0,15
120.0,26.66847476958,60,0.036,7.97e-09,586000000.0,52.0,15
121.0,26.71253471374,60,0.036,7.97e-09,586000000.0,52.0,15
122.0,26.7565946579,60,0.036,7.97e-09,586000000.0,52.0,15
123.0,26.80065460206,60,0.036,7.97e-09,586000000.0,52.0,15
124.0,26.84471454622,60,0.036,7.97e-09,586000000.0,52.0,15
125.0,26.88877449038,60,0.036,7.97e-09,586000000.0,52.0,15
126.0,26.93283443454,60,0.036,7.97e-09,586000000.0,52.0,15
127.0,26.9768943787,60,0.036,7.97e-09,586000000.0,52.0,15
128.0,27.02044429782,60,0.036,7.97e-09,586000000.0,52.0,15
129.0,27.06399421694,60,0.036,7.97e-09,586000000.0,52.0,15
130.0,27.10754413606,60,0.036,7.97e-09,586000000.0,52.0,15
131.0,27.15109405518,60,0.036,7.97e-09,586000000.0,52.0,15
132.0,27.1946439743,60,0.036,7.97e-09,586000000.0,52.0,15
133.0,27.23819389342,60,0.036,7.97e-09,586000000.0,52.0,15
134.0,27.28174381254,60,0.036,7.97e-09,586000000.0,52.0,15
135.0,27.32529373166,60,0.036,7.97e-09,586000000.0,52.0,15
136.0,27.36884365078,60,0.036,7.97e-09,586000000.0,52.0,15
137.0,27.4123935699,60,0.036,7.97e-09,586000000.0,52.0,15
138.0,27.45541706081,60,0.036,7.97e-09,586000000.0,52.0,15
139.0,27.49844055172,60,0.036,7.97e-09,586000000.0,52.0,15
140.0,27.54146404263,60,0.036,7.97e-09,586000000.0,52.0,15
141.0,27.58448753354,60,0.036,7.97e-09,586000000.0,52.0,15
142.0,27.62751102445,60,0.036,7.97e-09,586000000.0,52.0,15
143.0,27.67053451536,60,0.036,7.97e-09,586000000.0,52.0,15
144.0,27.71355800627,60,0.036,7.97e-09,586000000.0,52.0,15
145.0,27.75658149718,60,0.036,7.97e-09,586000000.0,52.0,15
146.0,27.79960498809,60,0.036,7.97e-09,586000000.0,52.0,15
147.0,27.842628479,60,0.036,7.97e-09,586000000.0,52.0,15
148.0,27.88511886596,60,0.036,7.97e-09,586000000.0,52.0,15
149.0,27.92760925292,60,0.036,7.97e-09,586000000.0,52.0,15
150.0,27.97009963988,60,0.036,7.97e-09,586000000.0,52.0,15
151.0,28.01259002684,60,0.036,7.97e-09,586000000.0,52.0,15
152.0,28.0550804138,60,0.036,7.97e-09,586000000.0,52.0,15
153.0,28.09757080076,60,0.036,7.97e-09,586000000.0,52.0,15
154.0,28.14006118772,60,0.036,7.97e-09,586000000.0,52.0,15
155.0,28.18255157468,60,0.036,7.97e-09,586000000.0,52.0,15
156.0,28.22504196164,60,0.036,7.97e-09,586000000.0,52.0,15
157.0,28.2675323486,60,0.036,7.97e-09,586000000.0,52.0,15
158.0,28.30948772427,60,0.036,7.97e-09,586000000.0,52.0,15
159.0,28.35144309994,60,0.036,7.97e-09,586000000.0,52.0,15
160.0,28.39339847561,60,0.036,7.97e-09,586000000.0,52.0,15
161.0,28.43535385128,60,0.036,7.97e-09,586000000.0,52.0,15
162.0,28.47730922695,60,0.036,7.97e-09,586000000.0,52.0,15
163.0,28.51926460262,60,0.036,7.97e-09,586000000.0,52.0,15
164.0,28.56121997829,60,0.036,7.97e-09,586000000.0,52.0,15
165.0,28.60317535396,60,0.036,7.97e-09,586000000.0,52.0,15
166.0,28.64513072963,60,0.036,7.97e-09,586000000.0,52.0,15
167.0,28.6870861053,60,0.036,7.97e-09,586000000.0,52.0,15
168.0,28.72850723262,60,0.036,7.97e-09,586000000.0,52.0,15
169.0,28.76992835994,60,0.036,7.97e-09,586000000.0,52.0,15
170.0,28.81134948726,60,0.036,7.97e-09,586000000.0,52.0,15
171.0,28.85277061458,60,0.036,7.97e-09,586000000.0,52.0,15
172.0,28.8941917419,60,0.036,7.97e-09,586000000.0,52.0,15
173.0,28.93561286922,60,0.036,7.97e-09,586000000.0,52.0,15
174.0,28.97703399654,60,0.036,7.97e-09,586000000.0,52.0,15
175.0,29.01845512386,60,0.036,7.97e-09,586000000.0,52.0,15
176.0,29.05987625118,60,0.036,7.97e-09,586000000.0,52.0,15
177.0,29.1012973785,60,0.036,7.97e-09,586000000.0,52.0,15
178.0,29.14218673702,60,0.036,7.97e-09,586000000.0,52.0,15
179.0,29.18307609554,60,0.036,7.97e-09,586000000.0,52.0,15
180.0,29.22396545406,60,0.036,7.97e-09,586000000.0,52.0,15
181.0,29.26485481258,60,0.036,7.97e-09,586000000.0,52.0,15
182.0,29.3057441711,60,0.036,7.97e-09,586000000.0,52.0,15
183.0,29.34663352962,60,0.036,7.97e-09,586000000.0,52.0,15
184.0,29.38752288814,60,0.036,7.97e-09,586000000.0,52.0,15
185.0,29.42841224666,60,0.036,7.97e-09,586000000.0,52.0,15
186.0,29.46930160518,60,0.036,7.97e-09,586000000.0,52.0,15
187.0,29.5101909637,60,0.036,7.97e-09,586000000.0,52.0,15
188.0,29.55055198665,60,0.036,7.97e-09,586000000.0,52.0,15
189.0,29.5909130096,60,0.036,7.97e-09,586000000.0,52.0,15
190.0,29.63127403255,60,0.036,7.97e-09,586000000.0,52.0,15
191.0,29.6716350555,60,0.036,7.97e-09,586000000.0,52.0,15
192.0,29.71199607845,60,0.036,7.97e-09,586000000.0,52.0,15
193.0,29.7523571014,60,0.036,7.97e-09,586000000.0,52.0,15
194.0,29.79271812435,60,0.036,7.97e-09,586000000.0,52.0,15
195.0,29.8330791473,60,0.036,7.97e-09,586000000.0,52.0,15
196.0,29.87344017025,60,0.036,7.97e-09,586000000.0,52.0,15
197.0,29.9138011932,60,0.036,7.97e-09,586000000.0,52.0,15
198.0,29.95363826748,60,0.036,7.97e-09,586000000.0,52.0,15
199.0,29.99347534176,60,0.036,7.97e-09,586000000.0,52.0,15
200.0,30.03331241604,60,0.036,7.97e-09,586000000.0,52.0,15
201.0,30.07314949032,60,0.036,7.97e-09,586000000.0,52.0,15
202.0,30.1129865646,60,0.036,7.97e-09,586000000.0,52.0,15
203.0,30.15282363888,60,0.036,7.97e-09,586000000.0,52.0,15
204.0,30.19266071316,60,0.036,7.97e-09,586000000.0,52.0,15
205.0,30.23249778744,60,0.036,7.97e-09,586000000.0,52.0,15
206.0,30.27233486172,60,0.036,7.97e-09,586000000.0,52.0,15
207.0,30.312171936,60,0.036,7.97e-09,586000000.0,52.0,15
208.0,30.35148963925,60,0.036,7.97e-09,586000000.0,52.0,15
209.0,30.3908073425,60,0.036,7.97e-09,586000000.0,52.0,15
210.0,30.43012504575,60,0.036,7.97e-09,586000000.0,52.0,15
211.0,30.469442749,60,0.036,7.97e-09,586000000.0,52.0,15
212.0,30.50876045225,60,0.036,7.97e-09,586000000.0,52.0,15
213.0,30.5480781555,60,0.036,7.97e-09,586000000.0,52.0,15
214.0,30.58739585875,60,0.036,7.97e-09,586000000.0,52.0,15
215.0,30.626713562,60,0.036,7.97e-09,586000000.0,52.0,15
216.0,30.66603126525,60,0.036,7.97e-09,586000000.0,52.0,15
217.0,30.7053489685,60,0.036,7.97e-09,586000000.0,52.0,15
218.0,30.74415264129,60,0.036,7.97e-09,586000000.0,52.0,15
219.0,30.78295631408,60,0.036,7.97e-09,586000000.0,52.0,15
220.0,30.82175998687,60,0.036,7.97e-09,586000000.0,52.0,15
221.0,30.86056365966,60,0.036,7.97e-09,586000000.0,52.0,15
222.0,30.89936733245,60,0.036,7.97e-09,586000000.0,52.0,15
223.0,30.93817100524,60,0.036,7.97e-09,586000000.0,52.0,15
224.0,30.97697467803,60,0.036,7.97e-09,586000000.0,52.0,15
225.0,31.01577835082,60,0.036,7.97e-09,586000000.0,52.0,15
226.0,31.05458202361,60,0.036,7.97e-09,586000000.0,52.0,15
227.0,31.0933856964,60,0.036,7.97e-09,586000000.0,52.0,15
228.0,31.13168067931,60,0.036,7.97e-09,586000000.0,52.0,15
229.0,31.16997566222,60,0.036,7.97e-09,586000000.0,52.0,15
230.0,31.20827064513,60,0.036,7.97e-09,586000000.0,52.0,15
231.0,31.24656562804,60,0.036,7.97e-09,586000000.0,52.0,15
232.0,31.28486061095,60,0.036,7.97e-09,586000000.0,52.0,15
233.0,31.32315559386,60,0.036,7.97e-09,586000000.0,52.0,15
234.0,31.36145057677,60,0.036,7.97e-09,586000000.0,52.0,15
235.0,31.39974555968,60,0.036,7.97e-09,586000000.0,52.0,15
236.0,31.43804054259,60,0.036,7.97e-09,586000000.0,52.0,15
237.0,31.4763355255,60,0.036,7.97e-09,586000000.0,52.0,15
238.0,31.51412773131,60,0.036,7.97e-09,586000000.0,52.0,15
239.0,31.55191993712,60,0.036,7.97e-09,586000000.0,52.0,15
240.0,31.58971214293,60,0.036,7.97e-09,586000000.0,52.0,15
241.0,31.62750434874,60,0.036,7.97e-09,586000000.0,52.0,15
242.0,31.66529655455,60,0.036,7.97e-09,586000000.0,52.0,15
243.0,31.70308876036,60,0.036,7.97e-09,586000000.0,52.0,15
244.0,31.74088096617,60,0.036,7.97e-09,586000000.0,52.0,15
245.0,31.77867317198,60,0.036,7.97e-09,586000000.0,52.0,15
246.0,31.81646537779,60,0.036,7.97e-09,586000000.0,52.0,15
247.0,31.8542575836,60,0.036,7.97e-09,586000000.0,52.0,15
248.0,31.89155254362,60,0.036,7.97e-09,586000000.0,52.0,15
249.0,31.92884750364,60,0.036,7.97e-09,586000000.0,52.0,15
250.0,31.96614246366,60,0.036,7.97e-09,586000000.0,52.0,15
251.0,32.00343742368,60,0.036,7.97e-09,586000000.0,52.0,15
252.0,32.0407323837,60,0.036,7.97e-09,586000000.0,52.0,15
253.0,32.07802734372,60,0.036,7.97e-09,586000000.0,52.0,15
254.0,32.11532230374,60,0.036,7.97e-09,586000000.0,52.0,15
255.0,32.15261726376,60,0.036,7.97e-09,586000000.0,52.0,15
256.0,32.18991222378,60,0.036,7.97e-09,586000000.0,52.0,15
257.0,32.2272071838,60,0.036,7.97e-09,586000000.0,52.0,15
258.0,32.26401062008,60,0.036,7.97e-09,586000000.0,52.0,15
259.0,32.30081405636,60,0.036,7.97e-09,586000000.0,52.0,15
260.0,32.33761749264,60,0.036,7.97e-09,586000000.0,52.0,15
261.0,32.37442092892,60,0.036,7.97e-09,586000000.0,52.0,15
262.0,32.4112243652,60,0.036,7.97e-09,586000000.0,52.0,15
263.0,32.44802780148,60,0.036,7.97e-09,586000000.0,52.0,15
264.0,32.48483123776,60,0.036,7.97e-09,586000000.0,52.0,15
265.0,32.52163467404,60,0.036,7.97e-09,586000000.0,52.0,15
266.0,32.55843811032,60,0.036,7.97e-09,586000000.0,52.0,15
267.0,32.5952415466,60,0.036,7.97e-09,586000000.0,52.0,15
268.0,32.63155975339,60,0.036,7.97e-09,586000000.0,52.0,15
269.0,32.66787796018,60,0.036,7.97e-09,586000000.0,52.0,15
270.0,32.70419616697,60,0.036,7.97e-09,586000000.0,52.0,15
271.0,32.74051437376,60,0.036,7.97e-09,586000000.0,52.0,15
272.0,32.77683258055,60,0.036,7.97e-09,586000000.0,52.0,15
273.0,32.81315078734,60,0.036,7.97e-09,586000000.0,52.0,15
274.0,32.84946899413,60,0.036,7.97e-09,586000000.0,52.0,15
275.0,32.88578720092,60,0.036,7.97e-09,586000000.0,52.0,15
276.0,32.92210540771,60,0.036,7.97e-09,586000000.0,52.0,15
277.0,32.9584236145,60,0.036,7.97e-09,586000000.0,52.0,15
278.0,32.99426231384,60,0.036,7.97e-09,586000000.0,52.0,15
279.0,33.03010101318,60,0.036,7.97e-09,586000000.0,52.0,15
280.0,33.06593971252,60,0.036,7.97e-09,586000000.0,52.0,15
281.0,33.10177841186,60,0.036,7.97e-09,586000000.0,52.0,15
282.0,33.1376171112,60,0.036,7.97e-09,586000000.0,52.0,15
283.0,33.17345581054,60,0.036,7.97e-09,586000000.0,52.0,15
284.0,33.20929450988,60,0.036,7.97e-09,586000000.0,52.0,15
285.0,33.24513320922,60,0.036,7.97e-09,586000000.0,52.0,15
286.0,33.28097190856,60,0.036,7.97e-09,586000000.0,52.0,15
287.0,33.3168106079,60,0.036,7.97e-09,586000000.0,52.0,15
288.0,33.35217628478,60,0.036,7.97e-09,586000000.0,52.0,15
289.0,33.38754196166,60,0.036,7.97e-09,586000000.0,52.0,15
290.0,33.42290763854,60,0.036,7.97e-09,586000000.0,52.0,15
291.0,33.45827331542,60,0.036,7.97e-09,586000000.0,52.0,15
292.0,33.4936389923,60,0.036,7.97e-09,586000000.0,52.0,15
293.0,33.52900466918,60,0.036,7.97e-09,586000000.0,52.0,15
294.0,33.56437034606,60,0.036,7.97e-09,586000000.0,52.0,15
295.0,33.59973602294,60,0.036,7.97e-09,586000000.0,52.0,15
296.0,33.63510169982,60,0.036,7.97e-09,586000000.0,52.0,15
297.0,33.6704673767,60,0.036,7.97e-09,586000000.0,52.0,15
298.0,33.70536499023,60,0.036,7.97e-09,586000000.0,52.0,15
299.0,33.74026260376,60,0.036,7.97e-09,586000000.0,52.0,15
300.0,33.77516021729,60,0.036,7.97e-09,586000000.0,52.0,15
301.0,33.81005783082,60,0.036,7.97e-09,586000000.0,52.0,15
302.0,33.84495544435,60,0.036,7.97e-09,586000000.0,52.0,15
303.0,33.87985305788,60,0.036,7.97e-09,586000000.0,52.0,15
304.0,33.91475067141,60,0.036,7.97e-09,586000000.0,52.0,15
305.0,33.94964828494,60,0.036,7.97e-09,586000000.0,52.0,15
306.0,33.98454589847,60,0.036,7.97e-09,586000000.0,52.0,15
307.0,34.019443512,60,0.036,7.97e-09,586000000.0,52.0,15
308.0,34.05387992862,60,0.036,7.97e-09,586000000.0,52.0,15
309.0,34.08831634524,60,0.036,7.97e-09,586000000.0,52.0,15
310.0,34.12275276186,60,0.036,7.97e-09,586000000.0,52.0,15
311.0,34.15718917848,60,0.036,7.97e-09,586000000.0,52.0,15
312.0,34.1916255951,60,0.036,7.97e-09,586000000.0,52.0,15
313.0,34.22606201172,60,0.036,7.97e-09,586000000.0,52.0,15
314.0,34.26049842834,60,0.036,7.97e-09,586000000.0,52.0,15
315.0,34.29493484496,60,0.036,7.97e-09,586000000.0,52.0,15
316.0,34.32937126158,60,0.036,7.97e-09,586000000.0,52.0,15
317.0,34.3638076782,60,0.036,7.97e-09,586000000.0,52.0,15
318.0,34.3977882385,60,0.036,7.97e-09,586000000.0,52.0,15
319.0,34.4317687988,60,0.036,7.97e-09,586000000.0,52.0,15
320.0,34.4657493591,60,0.036,7.97e-09,586000000.0,52.0,15
321.0,34.4997299194,60,0.036,7.97e-09,586000000.0,52.0,15
322.0,34.5337104797,60,0.036,7.97e-09,586000000.0,52.0,15
323.0,34.56769104,60,0.036,7.97e-09,586000000.0,52.0,15
324.0,34.6016716003,60,0.036,7.97e-09,586000000.0,52.0,15
325.0,34.6356521606,60,0.036,7.97e-09,586000000.0,52.0,15
326.0,34.6696327209,60,0.036,7.97e-09,586000000.0,52.0,15
327.0,34.7036132812,60,0.036,7.97e-09,586000000.0,52.0,15
328.0,34.73714447017,60,0.036,7.97e-09,586000000.0,52.0,15
329.0,34.77067565914,60,0.036,7.97e-09,586000000.0,52.0,15
330.0,34.80420684811,60,0.036,7.97e-09,586000000.0,52.0,15
331.0,34.83773803708,60,0.036,7.97e-09,586000000.0,52.0,15
332.0,34.87126922605,60,0.036,7.97e-09,586000000.0,52.0,15
333.0,34.90480041502,60,0.036,7.97e-09,586000000.0,52.0,15
334.0,34.93833160399,60,0.036,7.97e-09,586000000.0,52.0,15
335.0,34.97186279296,60,0.036,7.97e-09,586000000.0,52.0,15
