time,T_int,T_ext_1,Film_Coef,Density,Specific_Heat,Thermal_Conductivity,Radius
1.0,21.9471187592,22.88,0.036,7.87e-09,486000000.0,72.0,15
2.0,21.9037532806,23.76,0.036,7.87e-09,486000000.0,72.0,15
3.0,21.867559433,24.64,0.036,7.87e-09,486000000.0,72.0,15
4.0,21.84093379975,25.52,0.036,7.87e-09,486000000.0,72.0,15
5.0,21.8143081665,26.4,0.036,7.87e-09,486000000.0,72.0,15
6.0,21.8003025055,27.28,0.036,7.87e-09,486000000.0,72.0,15
7.0,21.7862968445,28.16,0.036,7.87e-09,486000000.0,72.0,15
8.0,21.7722911835,29.04,0.036,7.87e-09,486000000.0,72.0,15
9.0,21.7582855225,29.92,0.036,7.87e-09,486000000.0,72.0,15
10.0,21.7632532120125,30.8,0.036,7.87e-09,486000000.0,72.0,15
11.0,21.768220901525,31.68,0.036,7.87e-09,486000000.0,72.0,15
12.0,21.7731885910375,32.56,0.036,7.87e-09,486000000.0,72.0,15
13.0,21.77815628055,33.44,0.036,7.87e-09,486000000.0,72.0,15
14.0,21.7831239700625,34.32,0.036,7.87e-09,486000000.0,72.0,15
15.0,21.788091659575,35.2,0.036,7.87e-09,486000000.0,72.0,15
16.0,21.7930593490875,36.08,0.036,7.87e-09,486000000.0,72.0,15
17.0,21.7980270386,36.96,0.036,7.87e-09,486000000.0,72.0,15
18.0,21.8240501404,37.84,0.036,7.87e-09,486000000.0,72.0,15
19.0,21.8500732422,38.72,0.036,7.87e-09,486000000.0,72.0,15
20.0,21.876096344,39.6,0.036,7.87e-09,486000000.0,72.0,15
21.0,21.9021194458,40.48,0.036,7.87e-09,486000000.0,72.0,15
22.0,21.9281425476,41.36,0.036,7.87e-09,486000000.0,72.0,15
23.0,21.9541656494,42.24,0.036,7.87e-09,486000000.0,72.0,15
24.0,21.9801887512,43.12,0.036,7.87e-09,486000000.0,72.0,15
25.0,22.006211853,44.0,0.036,7.87e-09,486000000.0,72.0,15
26.0,22.0322349548,44.88,0.036,7.87e-09,486000000.0,72.0,15
27.0,22.0582580566,45.76,0.036,7.87e-09,486000000.0,72.0,15
28.0,22.10433673855,46.64,0.036,7.87e-09,486000000.0,72.0,15
29.0,22.1504154205,47.52,0.036,7.87e-09,486000000.0,72.0,15
30.0,22.19649410245,48.4,0.036,7.87e-09,486000000.0,72.0,15
31.0,22.2425727844,49.28,0.036,7.87e-09,486000000.0,72.0,15
32.0,22.28865146635,50.16,0.036,7.87e-09,486000000.0,72.0,15
33.0,22.3347301483,51.04,0.036,7.87e-09,486000000.0,72.0,15
34.0,22.38080883025,51.92,0.036,7.87e-09,486000000.0,72.0,15
35.0,22.4268875122,52.8,0.036,7.87e-09,486000000.0,72.0,15
36.0,22.47296619415,53.68,0.036,7.87e-09,486000000.0,72.0,15
37.0,22.5190448761,54.56,0.036,7.87e-09,486000000.0,72.0,15
38.0,22.58467006683,55.44,0.036,7.87e-09,486000000.0,72.0,15
39.0,22.65029525756,56.32,0.036,7.87e-09,486000000.0,72.0,15
40.0,22.71592044829,57.2,0.036,7.87e-09,486000000.0,72.0,15
41.0,22.78154563902,58.08,0.036,7.87e-09,486000000.0,72.0,15
42.0,22.84717082975,58.96,0.036,7.87e-09,486000000.0,72.0,15
43.0,22.91279602048,59.84,0.036,7.87e-09,486000000.0,72.0,15
44.0,22.97842121121,60.72,0.036,7.87e-09,486000000.0,72.0,15
45.0,23.04404640194,61.6,0.036,7.87e-09,486000000.0,72.0,15
46.0,23.10967159267,62.48,0.036,7.87e-09,486000000.0,72.0,15
47.0,23.1752967834,63.36,0.036,7.87e-09,486000000.0,72.0,15
48.0,23.24172935482,64.24,0.036,7.87e-09,486000000.0,72.0,15
49.0,23.30816192624,65.12,0.036,7.87e-09,486000000.0,72.0,15
50.0,23.37459449766,66.0,0.036,7.87e-09,486000000.0,72.0,15
51.0,23.44102706908,62.94,0.036,7.87e-09,486000000.0,72.0,15
52.0,23.5074596405,62.88,0.036,7.87e-09,486000000.0,72.0,15
53.0,23.57389221192,62.82,0.036,7.87e-09,486000000.0,72.0,15
54.0,23.64032478334,62.76,0.036,7.87e-09,486000000.0,72.0,15
55.0,23.70675735476,62.7,0.036,7.87e-09,486000000.0,72.0,15
56.0,23.77318992618,62.64,0.036,7.87e-09,486000000.0,72.0,15
57.0,23.8396224976,62.58,0.036,7.87e-09,486000000.0,72.0,15
58.0,23.90122356419,62.52,0.036,7.87e-09,486000000.0,72.0,15
59.0,23.96282463078,62.46,0.036,7.87e-09,486000000.0,72.0,15
60.0,24.02442569737,62.4,0.036,7.87e-09,486000000.0,72.0,15
61.0,24.08602676396,62.34,0.036,7.87e-09,486000000.0,72.0,15
62.0,24.14762783055,62.28,0.036,7.87e-09,486000000.0,72.0,15
63.0,24.20922889714,62.22,0.036,7.87e-09,486000000.0,72.0,15
64.0,24.27082996373,62.16,0.036,7.87e-09,486000000.0,72.0,15
65.0,24.33243103032,62.1,0.036,7.87e-09,486000000.0,72.0,15
66.0,24.39403209691,62.04,0.036,7.87e-09,486000000.0,72.0,15
67.0,24.4556331635,61.98,0.036,7.87e-09,486000000.0,72.0,15
68.0,24.51399345402,61.92,0.036,7.87e-09,486000000.0,72.0,15
69.0,24.57235374454,61.86,0.036,7.87e-09,486000000.0,72.0,15
70.0,24.63071403506,61.8,0.036,7.87e-09,486000000.0,72.0,15
71.0,24.68907432558,61.74,0.036,7.87e-09,486000000.0,72.0,15
72.0,24.7474346161,61.68,0.036,7.87e-09,486000000.0,72.0,15
73.0,24.80579490662,61.62,0.036,7.87e-09,486000000.0,72.0,15
74.0,24.86415519714,61.56,0.036,7.87e-09,486000000.0,72.0,15
75.0,24.92251548766,61.5,0.036,7.87e-09,486000000.0,72.0,15
76.0,24.98087577818,61.44,0.036,7.87e-09,486000000.0,72.0,15
77.0,25.0392360687,61.38,0.036,7.87e-09,486000000.0,72.0,15
78.0,25.09479312894,61.32,0.036,7.87e-09,486000000.0,72.0,15
79.0,25.15035018918,61.26,0.036,7.87e-09,486000000.0,72.0,15
80.0,25.20590724942,61.2,0.036,7.87e-09,486000000.0,72.0,15
81.0,25.26146430966,61.14,0.036,7.87e-09,486000000.0,72.0,15
82.0,25.3170213699,61.08,0.036,7.87e-09,486000000.0,72.0,15
83.0,25.37257843014,61.02,0.036,7.87e-09,486000000.0,72.0,15
84.0,25.42813549038,60.96,0.036,7.87e-09,486000000.0,72.0,15
85.0,25.48369255062,60.9,0.036,7.87e-09,486000000.0,72.0,15
86.0,25.53924961086,60.84,0.036,7.87e-09,486000000.0,72.0,15
87.0,25.5948066711,60.78,0.036,7.87e-09,486000000.0,72.0,15
88.0,25.64770889278,60.72,0.036,7.87e-09,486000000.0,72.0,15
89.0,25.70061111446,60.66,0.036,7.87e-09,486000000.0,72.0,15
90.0,25.75351333614,60.6,0.036,7.87e-09,486000000.0,72.0,15
91.0,25.80641555782,60.54,0.036,7.87e-09,486000000.0,72.0,15
92.0,25.8593177795,60.48,0.036,7.87e-09,486000000.0,72.0,15
93.0,25.91222000118,60.42,0.036,7.87e-09,486000000.0,72.0,15
94.0,25.96512222286,60.36,0.036,7.87e-09,486000000.0,72.0,15
95.0,26.01802444454,60.3,0.036,7.87e-09,486000000.0,72.0,15
96.0,26.07092666622,60.24,0.036,7.87e-09,486000000.0,72.0,15
97.0,26.1238288879,60.18,0.036,7.87e-09,486000000.0,72.0,15
98.0,26.17567081448,60.12,0.036,7.87e-09,486000000.0,72.0,15
99.0,26.22751274106,60.06,0.036,7.87e-09,486000000.0,72.0,15
100.0,26.27935466764,60.0,0.036,7.87e-09,486000000.0,72.0,15
101.0,26.33119659422,60,0.036,7.87e-09,486000000.0,72.0,15
102.0,26.3830385208,60,0.036,7.87e-09,486000000.0,72.0,15
103.0,26.43488044738,60,0.036,7.87e-09,486000000.0,72.0,15
104.0,26.48672237396,60,0.036,7.87e-09,486000000.0,72.0,15
105.0,26.53856430054,60,0.036,7.87e-09,486000000.0,72.0,15
106.0,26.59040622712,60,0.036,7.87e-09,486000000.0,72.0,15
107.0,26.6422481537,60,0.036,7.87e-09,486000000.0,72.0,15
108.0,26.69351043702,60,0.036,7.87e-09,486000000.0,72.0,15
109.0,26.74477272034,60,0.036,7.87e-09,486000000.0,72.0,15
110.0,26.79603500366,60,0.036,7.87e-09,486000000.0,72.0,15
111.0,26.84729728698,60,0.036,7.87e-09,486000000.0,72.0,15
112.0,26.8985595703,60,0.036,7.87e-09,486000000.0,72.0,15
113.0,26.94982185362,60,0.036,7.87e-09,486000000.0,72.0,15
114.0,27.00108413694,60,0.036,7.87e-09,486000000.0,72.0,15
115.0,27.05234642026,60,0.036,7.87e-09,486000000.0,72.0,15
116.0,27.10360870358,60,0.036,7.87e-09,486000000.0,72.0,15
117.0,27.1548709869,60,0.036,7.87e-09,486000000.0,72.0,15
118.0,27.20542526242,60,0.036,7.87e-09,486000000.0,72.0,15
119.0,27.25597953794,60,0.036,7.87e-09,486000000.0,72.0,15
120.0,27.30653381346,60,0.036,7.87e-09,486000000.0,72.0,15
121.0,27.35708808898,60,0.036,7.87e-09,486000000.0,72.0,15
122.0,27.4076423645,60,0.036,7.87e-09,486000000.0,72.0,15
123.0,27.45819664002,60,0.036,7.87e-09,486000000.0,72.0,15
124.0,27.50875091554,60,0.036,7.87e-09,486000000.0,72.0,15
125.0,27.55930519106,60,0.036,7.87e-09,486000000.0,72.0,15
126.0,27.60985946658,60,0.036,7.87e-09,486000000.0,72.0,15
127.0,27.6604137421,60,0.036,7.87e-09,486000000.0,72.0,15
128.0,27.71022853854,60,0.036,7.87e-09,486000000.0,72.0,15
129.0,27.76004333498,60,0.036,7.87e-09,486000000.0,72.0,15
130.0,27.80985813142,60,0.036,7.87e-09,486000000.0,72.0,15
131.0,27.85967292786,60,0.036,7.87e-09,486000000.0,72.0,15
132.0,27.9094877243,60,0.036,7.87e-09,486000000.0,72.0,15
133.0,27.95930252074,60,0.036,7.87e-09,486000000.0,72.0,15
134.0,28.00911731718,60,0.036,7.87e-09,486000000.0,72.0,15
135.0,28.05893211362,60,0.036,7.87e-09,486000000.0,72.0,15
136.0,28.10874691006,60,0.036,7.87e-09,486000000.0,72.0,15
137.0,28.1585617065,60,0.036,7.87e-09,486000000.0,72.0,15
138.0,28.20763072964,60,0.036,7.87e-09,486000000.0,72.0,15
139.0,28.25669975278,60,0.036,7.87e-09,486000000.0,72.0,15
140.0,28.30576877592,60,0.036,7.87e-09,486000000.0,72.0,15
141.0,28.35483779906,60,0.036,7.87e-09,486000000.0,72.0,15
142.0,28.4039068222,60,0.036,7.87e-09,486000000.0,72.0,15
143.0,28.45297584534,60,0.036,7.87e-09,486000000.0,72.0,15
144.0,28.50204486848,60,0.036,7.87e-09,486000000.0,72.0,15
145.0,28.55111389162,60,0.036,7.87e-09,486000000.0,72.0,15
146.0,28.60018291476,60,0.036,7.87e-09,486000000.0,72.0,15
147.0,28.6492519379,60,0.036,7.87e-09,486000000.0,72.0,15
148.0,28.697577858,60,0.036,7.87e-09,486000000.0,72.0,15
149.0,28.7459037781,60,0.036,7.87e-09,486000000.0,72.0,15
150.0,28.7942296982,60,0.036,7.87e-09,486000000.0,72.0,15
151.0,28.8425556183,60,0.036,7.87e-09,486000000.0,72.0,15
152.0,28.8908815384,60,0.036,7.87e-09,486000000.0,72.0,15
153.0,28.9392074585,60,0.036,7.87e-09,486000000.0,72.0,15
154.0,28.9875333786,60,0.036,7.87e-09,486000000.0,72.0,15
155.0,29.0358592987,60,0.036,7.87e-09,486000000.0,72.0,15
156.0,29.0841852188,60,0.036,7.87e-09,486000000.0,72.0,15
157.0,29.1325111389,60,0.036,7.87e-09,486000000.0,72.0,15
158.0,29.1801006317,60,0.036,7.87e-09,486000000.0,72.0,15
159.0,29.2276901245,60,0.036,7.87e-09,486000000.0,72.0,15
160.0,29.2752796173,60,0.036,7.87e-09,486000000.0,72.0,15
161.0,29.3228691101,60,0.036,7.87e-09,486000000.0,72.0,15
162.0,29.3704586029,60,0.036,7.87e-09,486000000.0,72.0,15
163.0,29.4180480957,60,0.036,7.87e-09,486000000.0,72.0,15
164.0,29.4656375885,60,0.036,7.87e-09,486000000.0,72.0,15
165.0,29.5132270813,60,0.036,7.87e-09,486000000.0,72.0,15
166.0,29.5608165741,60,0.036,7.87e-09,486000000.0,72.0,15
167.0,29.6084060669,60,0.036,7.87e-09,486000000.0,72.0,15
168.0,29.65526790619,60,0.036,7.87e-09,486000000.0,72.0,15
169.0,29.70212974548,60,0.036,7.87e-09,486000000.0,72.0,15
170.0,29.74899158477,60,0.036,7.87e-09,486000000.0,72.0,15
171.0,29.79585342406,60,0.036,7.87e-09,486000000.0,72.0,15
172.0,29.84271526335,60,0.036,7.87e-09,486000000.0,72.0,15
173.0,29.88957710264,60,0.036,7.87e-09,486000000.0,72.0,15
174.0,29.93643894193,60,0.036,7.87e-09,486000000.0,72.0,15
175.0,29.98330078122,60,0.036,7.87e-09,486000000.0,72.0,15
176.0,30.03016262051,60,0.036,7.87e-09,486000000.0,72.0,15
177.0,30.0770244598,60,0.036,7.87e-09,486000000.0,72.0,15
178.0,30.12316780087,60,0.036,7.87e-09,486000000.0,72.0,15
179.0,30.16931114194,60,0.036,7.87e-09,486000000.0,72.0,15
180.0,30.21545448301,60,0.036,7.87e-09,486000000.0,72.0,15
181.0,30.26159782408,60,0.036,7.87e-09,486000000.0,72.0,15
182.0,30.30774116515,60,0.036,7.87e-09,486000000.0,72.0,15
183.0,30.35388450622,60,0.036,7.87e-09,486000000.0,72.0,15
184.0,30.40002784729,60,0.036,7.87e-09,486000000.0,72.0,15
185.0,30.44617118836,60,0.036,7.87e-09,486000000.0,72.0,15
186.0,30.49231452943,60,0.036,7.87e-09,486000000.0,72.0,15
187.0,30.5384578705,60,0.036,7.87e-09,486000000.0,72.0,15
188.0,30.58389244081,60,0.036,7.87e-09,486000000.0,72.0,15
189.0,30.62932701112,60,0.036,7.87e-09,486000000.0,72.0,15
190.0,30.67476158143,60,0.036,7.87e-09,486000000.0,72.0,15
191.0,30.72019615174,60,0.036,7.87e-09,486000000.0,72.0,15
192.0,30.76563072205,60,0.036,7.87e-09,486000000.0,72.0,15
193.0,30.81106529236,60,0.036,7.87e-09,486000000.0,72.0,15
194.0,30.85649986267,60,0.036,7.87e-09,486000000.0,72.0,15
195.0,30.90193443298,60,0.036,7.87e-09,486000000.0,72.0,15
196.0,30.94736900329,60,0.036,7.87e-09,486000000.0,72.0,15
197.0,30.9928035736,60,0.036,7.87e-09,486000000.0,72.0,15
198.0,31.03753967284,60,0.036,7.87e-09,486000000.0,72.0,15
199.0,31.08227577208,60,0.036,7.87e-09,486000000.0,72.0,15
200.0,31.12701187132,60,0.036,7.87e-09,486000000.0,72.0,15
201.0,31.17174797056,60,0.036,7.87e-09,486000000.0,72.0,15
202.0,31.2164840698,60,0.036,7.87e-09,486000000.0,72.0,15
203.0,31.26122016904,60,0.036,7.87e-09,486000000.0,72.0,15
204.0,31.30595626828,60,0.036,7.87e-09,486000000.0,72.0,15
205.0,31.35069236752,60,0.036,7.87e-09,486000000.0,72.0,15
206.0,31.39542846676,60,0.036,7.87e-09,486000000.0,72.0,15
207.0,31.440164566,60,0.036,7.87e-09,486000000.0,72.0,15
208.0,31.48421230313,60,0.036,7.87e-09,486000000.0,72.0,15
209.0,31.52826004026,60,0.036,7.87e-09,486000000.0,72.0,15
210.0,31.57230777739,60,0.036,7.87e-09,486000000.0,72.0,15
211.0,31.61635551452,60,0.036,7.87e-09,486000000.0,72.0,15
212.0,31.66040325165,60,0.036,7.87e-09,486000000.0,72.0,15
213.0,31.70445098878,60,0.036,7.87e-09,486000000.0,72.0,15
214.0,31.74849872591,60,0.036,7.87e-09,486000000.0,72.0,15
215.0,31.79254646304,60,0.036,7.87e-09,486000000.0,72.0,15
216.0,31.83659420017,60,0.036,7.87e-09,486000000.0,72.0,15
217.0,31.8806419373,60,0.036,7.87e-09,486000000.0,72.0,15
218.0,31.92401123051,60,0.036,7.87e-09,486000000.0,72.0,15
219.0,31.96738052372,60,0.036,7.87e-09,486000000.0,72.0,15
220.0,32.01074981693,60,0.036,7.87e-09,486000000.0,72.0,15
221.0,32.05411911014,60,0.036,7.87e-09,486000000.0,72.0,15
222.0,32.09748840335,60,0.036,7.87e-09,486000000.0,72.0,15
223.0,32.14085769656,60,0.036,7.87e-09,486000000.0,72.0,15
224.0,32.18422698977,60,0.036,7.87e-09,486000000.0,72.0,15
225.0,32.22759628298,60,0.036,7.87e-09,486000000.0,72.0,15
226.0,32.27096557619,60,0.036,7.87e-09,486000000.0,72.0,15
227.0,32.3143348694,60,0.036,7.87e-09,486000000.0,72.0,15
228.0,32.35703620912,60,0.036,7.87e-09,486000000.0,72.0,15
229.0,32.39973754884,60,0.036,7.87e-09,486000000.0,72.0,15
230.0,32.44243888856,60,0.036,7.87e-09,486000000.0,72.0,15
231.0,32.48514022828,60,0.036,7.87e-09,486000000.0,72.0,15
232.0,32.527841568,60,0.036,7.87e-09,486000000.0,72.0,15
233.0,32.57054290772,60,0.036,7.87e-09,486000000.0,72.0,15
234.0,32.61324424744,60,0.036,7.87e-09,486000000.0,72.0,15
235.0,32.65594558716,60,0.036,7.87e-09,486000000.0,72.0,15
236.0,32.69864692688,60,0.036,7.87e-09,486000000.0,72.0,15
237.0,32.7413482666,60,0.036,7.87e-09,486000000.0,72.0,15
238.0,32.78339157104,60,0.036,7.87e-09,486000000.0,72.0,15
239.0,32.82543487548,60,0.036,7.87e-09,486000000.0,72.0,15
240.0,32.86747817992,60,0.036,7.87e-09,486000000.0,72.0,15
241.0,32.90952148436,60,0.036,7.87e-09,486000000.0,72.0,15
242.0,32.9515647888,60,0.036,7.87e-09,486000000.0,72.0,15
243.0,32.99360809324,60,0.036,7.87e-09,486000000.0,72.0,15
244.0,33.03565139768,60,0.036,7.87e-09,486000000.0,72.0,15
245.0,33.07769470212,60,0.036,7.87e-09,486000000.0,72.0,15
246.0,33.11973800656,60,0.036,7.87e-09,486000000.0,72.0,15
247.0,33.161781311,60,0.036,7.87e-09,486000000.0,72.0,15
248.0,33.20317649838,60,0.036,7.87e-09,486000000.0,72.0,15
249.0,33.24457168576,60,0.036,7.87e-09,486000000.0,72.0,15
250.0,33.28596687314,60,0.036,7.87e-09,486000000.0,72.0,15
251.0,33.32736206052,60,0.036,7.87e-09,486000000.0,72.0,15
252.0,33.3687572479,60,0.036,7.87e-09,486000000.0,72.0,15
253.0,33.41015243528,60,0.036,7.87e-09,486000000.0,72.0,15
254.0,33.45154762266,60,0.036,7.87e-09,486000000.0,72.0,15
255.0,33.49294281004,60,0.036,7.87e-09,486000000.0,72.0,15
256.0,33.53433799742,60,0.036,7.87e-09,486000000.0,72.0,15
257.0,33.5757331848,60,0.036,7.87e-09,486000000.0,72.0,15
258.0,33.6164905548,60,0.036,7.87e-09,486000000.0,72.0,15
259.0,33.6572479248,60,0.036,7.87e-09,486000000.0,72.0,15
260.0,33.6980052948,60,0.036,7.87e-09,486000000.0,72.0,15
261.0,33.7387626648,60,0.036,7.87e-09,486000000.0,72.0,15
262.0,33.7795200348,60,0.036,7.87e-09,486000000.0,72.0,15
263.0,33.8202774048,60,0.036,7.87e-09,486000000.0,72.0,15
264.0,33.8610347748,60,0.036,7.87e-09,486000000.0,72.0,15
265.0,33.9017921448,60,0.036,7.87e-09,486000000.0,72.0,15
266.0,33.9425495148,60,0.036,7.87e-09,486000000.0,72.0,15
267.0,33.9833068848,60,0.036,7.87e-09,486000000.0,72.0,15
268.0,34.02343521121,60,0.036,7.87e-09,486000000.0,72.0,15
269.0,34.06356353762,60,0.036,7.87e-09,486000000.0,72.0,15
270.0,34.10369186403,60,0.036,7.87e-09,486000000.0,72.0,15
271.0,34.14382019044,60,0.036,7.87e-09,486000000.0,72.0,15
272.0,34.18394851685,60,0.036,7.87e-09,486000000.0,72.0,15
273.0,34.22407684326,60,0.036,7.87e-09,486000000.0,72.0,15
274.0,34.26420516967,60,0.036,7.87e-09,486000000.0,72.0,15
275.0,34.30433349608,60,0.036,7.87e-09,486000000.0,72.0,15
276.0,34.34446182249,60,0.036,7.87e-09,486000000.0,72.0,15
277.0,34.3845901489,60,0.036,7.87e-09,486000000.0,72.0,15
278.0,34.42410011289,60,0.036,7.87e-09,486000000.0,72.0,15
279.0,34.46361007688,60,0.036,7.87e-09,486000000.0,72.0,15
280.0,34.50312004087,60,0.036,7.87e-09,486000000.0,72.0,15
281.0,34.54263000486,60,0.036,7.87e-09,486000000.0,72.0,15
282.0,34.58213996885,60,0.036,7.87e-09,486000000.0,72.0,15
283.0,34.62164993284,60,0.036,7.87e-09,486000000.0,72.0,15
284.0,34.66115989683,60,0.036,7.87e-09,486000000.0,72.0,15
285.0,34.70066986082,60,0.036,7.87e-09,486000000.0,72.0,15
286.0,34.74017982481,60,0.036,7.87e-09,486000000.0,72.0,15
287.0,34.7796897888,60,0.036,7.87e-09,486000000.0,72.0,15
288.0,34.81859054564,60,0.036,7.87e-09,486000000.0,72.0,15
289.0,34.85749130248,60,0.036,7.87e-09,486000000.0,72.0,15
290.0,34.89639205932,60,0.036,7.87e-09,486000000.0,72.0,15
291.0,34.93529281616,60,0.036,7.87e-09,486000000.0,72.0,15
292.0,34.974193573,60,0.036,7.87e-09,486000000.0,72.0,15
293.0,35.01309432984,60,0.036,7.87e-09,486000000.0,72.0,15
294.0,35.05199508668,60,0.036,7.87e-09,486000000.0,72.0,15
295.0,35.09089584352,60,0.036,7.87e-09,486000000.0,72.0,15
296.0,35.12979660036,60,0.036,7.87e-09,486000000.0,72.0,15
297.0,35.1686973572,60,0.036,7.87e-09,486000000.0,72.0,15
298.0,35.20699806215,60,0.036,7.87e-09,486000000.0,72.0,15
299.0,35.2452987671,60,0.036,7.87e-09,486000000.0,72.0,15
300.0,35.28359947205,60,0.036,7.87e-09,486000000.0,72.0,15
301.0,35.321900177,60,0.036,7.87e-09,486000000.0,72.0,15
302.0,35.36020088195,60,0.036,7.87e-09,486000000.0,72.0,15
303.0,35.3985015869,60,0.036,7.87e-09,486000000.0,72.0,15
304.0,35.43680229185,60,0.036,7.87e-09,486000000.0,72.0,15
305.0,35.4751029968,60,0.036,7.87e-09,486000000.0,72.0,15
306.0,35.51340370175,60,0.036,7.87e-09,486000000.0,72.0,15
307.0,35.5517044067,60,0.036,7.87e-09,486000000.0,72.0,15
308.0,35.58941421505,60,0.036,7.87e-09,486000000.0,72.0,15
309.0,35.6271240234,60,0.036,7.87e-09,486000000.0,72.0,15
310.0,35.66483383175,60,0.036,7.87e-09,486000000.0,72.0,15
311.0,35.7025436401,60,0.036,7.87e-09,486000000.0,72.0,15
312.0,35.74025344845,60,0.036,7.87e-09,486000000.0,72.0,15
313.0,35.7779632568,60,0.036,7.87e-09,486000000.0,72.0,15
314.0,35.81567306515,60,0.036,7.87e-09,486000000.0,72.0,15
315.0,35.8533828735,60,0.036,7.87e-09,486000000.0,72.0,15
316.0,35.89109268185,60,0.036,7.87e-09,486000000.0,72.0,15
317.0,35.9288024902,60,0.036,7.87e-09,486000000.0,72.0,15
318.0,35.96593093869,60,0.036,7.87e-09,486000000.0,72.0,15
319.0,36.00305938718,60,0.036,7.87e-09,486000000.0,72.0,15
320.0,36.04018783567,60,0.036,7.87e-09,486000000.0,72.0,15
321.0,36.07731628416,60,0.036,7.87e-09,486000000.0,72.0,15
322.0,36.11444473265,60,0.036,7.87e-09,486000000.0,72.0,15
323.0,36.15157318114,60,0.036,7.87e-09,486000000.0,72.0,15
324.0,36.18870162963,60,0.036,7.87e-09,486000000.0,72.0,15
325.0,36.22583007812,60,0.036,7.87e-09,486000000.0,72.0,15
326.0,36.26295852661,60,0.036,7.87e-09,486000000.0,72.0,15
327.0,36.3000869751,60,0.036,7.87e-09,486000000.0,72.0,15
328.0,36.33664245606,60,0.036,7.87e-09,486000000.0,72.0,15
329.0,36.37319793702,60,0.036,7.87e-09,486000000.0,72.0,15
330.0,36.40975341798,60,0.036,7.87e-09,486000000.0,72.0,15
331.0,36.44630889894,60,0.036,7.87e-09,486000000.0,72.0,15
332.0,36.4828643799,60,0.036,7.87e-09,486000000.0,72.0,15
333.0,36.51941986086,60,0.036,7.87e-09,486000000.0,72.0,15
334.0,36.55597534182,60,0.036,7.87e-09,486000000.0,72.0,15
335.0,36.59253082278,60,0.036,7.87e-09,486000000.0,72.0,15
336.0,36.62908630374,60,0.036,7.87e-09,486000000.0,72.0,15
