time,T_int,T_ext_1,Film_Coef,Density,Specific_Heat,Thermal_Conductivity,Radius
1.0,21.9869747162,22.88,0.036,7.77e-09,636000000.0,132.0,15
2.0,21.9765377045,23.76,0.036,7.77e-09,636000000.0,132.0,15
3.0,21.9678535461,24.64,0.036,7.77e-09,636000000.0,132.0,15
4.0,21.9613304138,25.52,0.036,7.77e-09,636000000.0,132.0,15
5.0,21.9548072815,26.4,0.036,7.77e-09,636000000.0,132.0,15
6.0,21.951165676125,27.28,0.036,7.77e-09,636000000.0,132.0,15
7.0,21.94752407075,28.16,0.036,7.77e-09,636000000.0,132.0,15
8.0,21.943882465375,29.04,0.036,7.77e-09,636000000.0,132.0,15
9.0,21.94024086,29.92,0.036,7.77e-09,636000000.0,132.0,15
10.0,21.941222906125,30.8,0.036,7.77e-09,636000000.0,132.0,15
11.0,21.94220495225,31.68,0.036,7.77e-09,636000000.0,132.0,15
12.0,21.943186998375,32.56,0.036,7.77e-09,636000000.0,132.0,15
13.0,21.9441690445,33.44,0.036,7.77e-09,636000000.0,132.0,15
14.0,21.945151090625,34.32,0.036,7.77e-09,636000000.0,132.0,15
15.0,21.94613313675,35.2,0.036,7.77e-09,636000000.0,132.0,15
16.0,21.947115182875,36.08,0.036,7.77e-09,636000000.0,132.0,15
17.0,21.948097229,36.96,0.036,7.77e-09,636000000.0,132.0,15
18.0,21.9544713974,37.84,0.036,7.77e-09,636000000.0,132.0,15
19.0,21.9608455658,38.72,0.036,7.77e-09,636000000.0,132.0,15
20.0,21.9672197342,39.6,0.036,7.77e-09,636000000.0,132.0,15
21.0,21.9735939026,40.48,0.036,7.77e-09,636000000.0,132.0,15
22.0,21.979968071,41.36,0.036,7.77e-09,636000000.0,132.0,15
23.0,21.9863422394,42.24,0.036,7.77e-09,636000000.0,132.0,15
24.0,21.9927164078,43.12,0.036,7.77e-09,636000000.0,132.0,15
25.0,21.9990905762,44.0,0.036,7.77e-09,636000000.0,132.0,15
26.0,22.0054647446,44.88,0.036,7.77e-09,636000000.0,132.0,15
27.0,22.011838913,45.76,0.036,7.77e-09,636000000.0,132.0,15
28.0,22.02350692752,46.64,0.036,7.77e-09,636000000.0,132.0,15
29.0,22.03517494204,47.52,0.036,7.77e-09,636000000.0,132.0,15
30.0,22.04684295656,48.4,0.036,7.77e-09,636000000.0,132.0,15
31.0,22.05851097108,49.28,0.036,7.77e-09,636000000.0,132.0,15
32.0,22.0701789856,50.16,0.036,7.77e-09,636000000.0,132.0,15
33.0,22.08184700012,51.04,0.036,7.77e-09,636000000.0,132.0,15
34.0,22.09351501464,51.92,0.036,7.77e-09,636000000.0,132.0,15
35.0,22.10518302916,52.8,0.036,7.77e-09,636000000.0,132.0,15
36.0,22.11685104368,53.68,0.036,7.77e-09,636000000.0,132.0,15
37.0,22.1285190582,54.56,0.036,7.77e-09,636000000.0,132.0,15
38.0,22.14545135496,55.44,0.036,7.77e-09,636000000.0,132.0,15
39.0,22.16238365172,56.32,0.036,7.77e-09,636000000.0,132.0,15
40.0,22.17931594848,57.2,0.036,7.77e-09,636000000.0,132.0,15
41.0,22.19624824524,58.08,0.036,7.77e-09,636000000.0,132.0,15
42.0,22.213180542,58.96,0.036,7.77e-09,636000000.0,132.0,15
43.0,22.23011283876,59.84,0.036,7.77e-09,636000000.0,132.0,15
44.0,22.24704513552,60.72,0.036,7.77e-09,636000000.0,132.0,15
45.0,22.26397743228,61.6,0.036,7.77e-09,636000000.0,132.0,15
46.0,22.28090972904,62.48,0.036,7.77e-09,636000000.0,132.0,15
47.0,22.2978420258,63.36,0.036,7.77e-09,636000000.0,132.0,15
48.0,22.31541461948,64.24,0.036,7.77e-09,636000000.0,132.0,15
49.0,22.33298721316,65.12,0.036,7.77e-09,636000000.0,132.0,15
50.0,22.35055980684,66.0,0.036,7.77e-09,636000000.0,132.0,15
51.0,22.36813240052,62.94,0.036,7.77e-09,636000000.0,132.0,15
52.0,22.3857049942,62.88,0.036,7.77e-09,636000000.0,132.0,15
53.0,22.40327758788,62.82,0.036,7.77e-09,636000000.0,132.0,15
54.0,22.42085018156,62.76,0.036,7.77e-09,636000000.0,132.0,15
55.0,22.43842277524,62.7,0.036,7.77e-09,636000000.0,132.0,15
56.0,22.45599536892,62.64,0.036,7.77e-09,636000000.0,132.0,15
57.0,22.4735679626,62.58,0.036,7.77e-09,636000000.0,132.0,15
58.0,22.49026927944,62.52,0.036,7.77e-09,636000000.0,132.0,15
59.0,22.50697059628,62.46,0.036,7.77e-09,636000000.0,132.0,15
60.0,22.52367191312,62.4,0.036,7.77e-09,636000000.0,132.0,15
61.0,22.54037322996,62.34,0.036,7.77e-09,636000000.0,132.0,15
62.0,22.5570745468,62.28,0.036,7.77e-09,636000000.0,132.0,15
63.0,22.57377586364,62.22,0.036,7.77e-09,636000000.0,132.0,15
64.0,22.59047718048,62.16,0.036,7.77e-09,636000000.0,132.0,15
65.0,22.60717849732,62.1,0.036,7.77e-09,636000000.0,132.0,15
66.0,22.62387981416,62.04,0.036,7.77e-09,636000000.0,132.0,15
67.0,22.640581131,61.98,0.036,7.77e-09,636000000.0,132.0,15
68.0,22.65669536592,61.92,0.036,7.77e-09,636000000.0,132.0,15
69.0,22.67280960084,61.86,0.036,7.77e-09,636000000.0,132.0,15
70.0,22.68892383576,61.8,0.036,7.77e-09,636000000.0,132.0,15
71.0,22.70503807068,61.74,0.036,7.77e-09,636000000.0,132.0,15
72.0,22.7211523056,61.68,0.036,7.77e-09,636000000.0,132.0,15
73.0,22.73726654052,61.62,0.036,7.77e-09,636000000.0,132.0,15
74.0,22.75338077544,61.56,0.036,7.77e-09,636000000.0,132.0,15
75.0,22.76949501036,61.5,0.036,7.77e-09,636000000.0,132.0,15
76.0,22.78560924528,61.44,0.036,7.77e-09,636000000.0,132.0,15
77.0,22.8017234802,61.38,0.036,7.77e-09,636000000.0,132.0,15
78.0,22.81730117796,61.32,0.036,7.77e-09,636000000.0,132.0,15
79.0,22.83287887572,61.26,0.036,7.77e-09,636000000.0,132.0,15
80.0,22.84845657348,61.2,0.036,7.77e-09,636000000.0,132.0,15
81.0,22.86403427124,61.14,0.036,7.77e-09,636000000.0,132.0,15
82.0,22.879611969,61.08,0.036,7.77e-09,636000000.0,132.0,15
83.0,22.89518966676,61.02,0.036,7.77e-09,636000000.0,132.0,15
84.0,22.91076736452,60.96,0.036,7.77e-09,636000000.0,132.0,15
85.0,22.92634506228,60.9,0.036,7.77e-09,636000000.0,132.0,15
86.0,22.94192276004,60.84,0.036,7.77e-09,636000000.0,132.0,15
87.0,22.9575004578,60.78,0.036,7.77e-09,636000000.0,132.0,15
88.0,22.97254867557,60.72,0.036,7.77e-09,636000000.0,132.0,15
89.0,22.98759689334,60.66,0.036,7.77e-09,636000000.0,132.0,15
90.0,23.00264511111,60.6,0.036,7.77e-09,636000000.0,132.0,15
91.0,23.01769332888,60.54,0.036,7.77e-09,636000000.0,132.0,15
92.0,23.03274154665,60.48,0.036,7.77e-09,636000000.0,132.0,15
93.0,23.04778976442,60.42,0.036,7.77e-09,636000000.0,132.0,15
94.0,23.06283798219,60.36,0.036,7.77e-09,636000000.0,132.0,15
95.0,23.07788619996,60.3,0.036,7.77e-09,636000000.0,132.0,15
96.0,23.09293441773,60.24,0.036,7.77e-09,636000000.0,132.0,15
97.0,23.1079826355,60.18,0.036,7.77e-09,636000000.0,132.0,15
98.0,23.12288322449,60.12,0.036,7.77e-09,636000000.0,132.0,15
99.0,23.13778381348,60.06,0.036,7.77e-09,636000000.0,132.0,15
100.0,23.15268440247,60.0,0.036,7.77e-09,636000000.0,132.0,15
101.0,23.16758499146,60,0.036,7.77e-09,636000000.0,132.0,15
102.0,23.18248558045,60,0.036,7.77e-09,636000000.0,132.0,15
103.0,23.19738616944,60,0.036,7.77e-09,636000000.0,132.0,15
104.0,23.21228675843,60,0.036,7.77e-09,636000000.0,132.0,15
105.0,23.22718734742,60,0.036,7.77e-09,636000000.0,132.0,15
106.0,23.24208793641,60,0.036,7.77e-09,636000000.0,132.0,15
107.0,23.2569885254,60,0.036,7.77e-09,636000000.0,132.0,15
108.0,23.27186450959,60,0.036,7.77e-09,636000000.0,132.0,15
109.0,23.28674049378,60,0.036,7.77e-09,636000000.0,132.0,15
110.0,23.30161647797,60,0.036,7.77e-09,636000000.0,132.0,15
111.0,23.31649246216,60,0.036,7.77e-09,636000000.0,132.0,15
112.0,23.33136844635,60,0.036,7.77e-09,636000000.0,132.0,15
113.0,23.34624443054,60,0.036,7.77e-09,636000000.0,132.0,15
114.0,23.36112041473,60,0.036,7.77e-09,636000000.0,132.0,15
115.0,23.37599639892,60,0.036,7.77e-09,636000000.0,132.0,15
116.0,23.39087238311,60,0.036,7.77e-09,636000000.0,132.0,15
117.0,23.4057483673,60,0.036,7.77e-09,636000000.0,132.0,15
118.0,23.42057285308,60,0.036,7.77e-09,636000000.0,132.0,15
119.0,23.43539733886,60,0.036,7.77e-09,636000000.0,132.0,15
120.0,23.45022182464,60,0.036,7.77e-09,636000000.0,132.0,15
121.0,23.46504631042,60,0.036,7.77e-09,636000000.0,132.0,15
122.0,23.4798707962,60,0.036,7.77e-09,636000000.0,132.0,15
123.0,23.49469528198,60,0.036,7.77e-09,636000000.0,132.0,15
124.0,23.50951976776,60,0.036,7.77e-09,636000000.0,132.0,15
125.0,23.52434425354,60,0.036,7.77e-09,636000000.0,132.0,15
126.0,23.53916873932,60,0.036,7.77e-09,636000000.0,132.0,15
127.0,23.5539932251,60,0.036,7.77e-09,636000000.0,132.0,15
128.0,23.56876087189,60,0.036,7.77e-09,636000000.0,132.0,15
129.0,23.58352851868,60,0.036,7.77e-09,636000000.0,132.0,15
130.0,23.59829616547,60,0.036,7.77e-09,636000000.0,132.0,15
131.0,23.61306381226,60,0.036,7.77e-09,636000000.0,132.0,15
132.0,23.62783145905,60,0.036,7.77e-09,636000000.0,132.0,15
133.0,23.64259910584,60,0.036,7.77e-09,636000000.0,132.0,15
134.0,23.65736675263,60,0.036,7.77e-09,636000000.0,132.0,15
135.0,23.67213439942,60,0.036,7.77e-09,636000000.0,132.0,15
136.0,23.68690204621,60,0.036,7.77e-09,636000000.0,132.0,15
137.0,23.701669693,60,0.036,7.77e-09,636000000.0,132.0,15
138.0,23.71637840272,60,0.036,7.77e-09,636000000.0,132.0,15
139.0,23.73108711244,60,0.036,7.77e-09,636000000.0,132.0,15
140.0,23.74579582216,60,0.036,7.77e-09,636000000.0,132.0,15
141.0,23.76050453188,60,0.036,7.77e-09,636000000.0,132.0,15
142.0,23.7752132416,60,0.036,7.77e-09,636000000.0,132.0,15
143.0,23.78992195132,60,0.036,7.77e-09,636000000.0,132.0,15
144.0,23.80463066104,60,0.036,7.77e-09,636000000.0,132.0,15
145.0,23.81933937076,60,0.036,7.77e-09,636000000.0,132.0,15
146.0,23.83404808048,60,0.036,7.77e-09,636000000.0,132.0,15
147.0,23.8487567902,60,0.036,7.77e-09,636000000.0,132.0,15
148.0,23.86340637211,60,0.036,7.77e-09,636000000.0,132.0,15
149.0,23.87805595402,60,0.036,7.77e-09,636000000.0,132.0,15
150.0,23.89270553593,60,0.036,7.77e-09,636000000.0,132.0,15
151.0,23.90735511784,60,0.036,7.77e-09,636000000.0,132.0,15
152.0,23.92200469975,60,0.036,7.77e-09,636000000.0,132.0,15
153.0,23.93665428166,60,0.036,7.77e-09,636000000.0,132.0,15
154.0,23.95130386357,60,0.036,7.77e-09,636000000.0,132.0,15
155.0,23.96595344548,60,0.036,7.77e-09,636000000.0,132.0,15
156.0,23.98060302739,60,0.036,7.77e-09,636000000.0,132.0,15
157.0,23.9952526093,60,0.036,7.77e-09,636000000.0,132.0,15
158.0,24.0098430634,60,0.036,7.77e-09,636000000.0,132.0,15
159.0,24.0244335175,60,0.036,7.77e-09,636000000.0,132.0,15
160.0,24.0390239716,60,0.036,7.77e-09,636000000.0,132.0,15
161.0,24.0536144257,60,0.036,7.77e-09,636000000.0,132.0,15
162.0,24.0682048798,60,0.036,7.77e-09,636000000.0,132.0,15
163.0,24.0827953339,60,0.036,7.77e-09,636000000.0,132.0,15
164.0,24.097385788,60,0.036,7.77e-09,636000000.0,132.0,15
165.0,24.1119762421,60,0.036,7.77e-09,636000000.0,132.0,15
166.0,24.1265666962,60,0.036,7.77e-09,636000000.0,132.0,15
167.0,24.1411571503,60,0.036,7.77e-09,636000000.0,132.0,15
168.0,24.15568866733,60,0.036,7.77e-09,636000000.0,132.0,15
169.0,24.17022018436,60,0.036,7.77e-09,636000000.0,132.0,15
170.0,24.18475170139,60,0.036,7.77e-09,636000000.0,132.0,15
171.0,24.19928321842,60,0.036,7.77e-09,636000000.0,132.0,15
172.0,24.21381473545,60,0.036,7.77e-09,636000000.0,132.0,15
173.0,24.22834625248,60,0.036,7.77e-09,636000000.0,132.0,15
174.0,24.24287776951,60,0.036,7.77e-09,636000000.0,132.0,15
175.0,24.25740928654,60,0.036,7.77e-09,636000000.0,132.0,15
176.0,24.27194080357,60,0.036,7.77e-09,636000000.0,132.0,15
177.0,24.2864723206,60,0.036,7.77e-09,636000000.0,132.0,15
178.0,24.30094490055,60,0.036,7.77e-09,636000000.0,132.0,15
179.0,24.3154174805,60,0.036,7.77e-09,636000000.0,132.0,15
180.0,24.32989006045,60,0.036,7.77e-09,636000000.0,132.0,15
181.0,24.3443626404,60,0.036,7.77e-09,636000000.0,132.0,15
182.0,24.35883522035,60,0.036,7.77e-09,636000000.0,132.0,15
183.0,24.3733078003,60,0.036,7.77e-09,636000000.0,132.0,15
184.0,24.38778038025,60,0.036,7.77e-09,636000000.0,132.0,15
185.0,24.4022529602,60,0.036,7.77e-09,636000000.0,132.0,15
186.0,24.41672554015,60,0.036,7.77e-09,636000000.0,132.0,15
187.0,24.4311981201,60,0.036,7.77e-09,636000000.0,132.0,15
188.0,24.44561214445,60,0.036,7.77e-09,636000000.0,132.0,15
189.0,24.4600261688,60,0.036,7.77e-09,636000000.0,132.0,15
190.0,24.47444019315,60,0.036,7.77e-09,636000000.0,132.0,15
191.0,24.4888542175,60,0.036,7.77e-09,636000000.0,132.0,15
192.0,24.50326824185,60,0.036,7.77e-09,636000000.0,132.0,15
193.0,24.5176822662,60,0.036,7.77e-09,636000000.0,132.0,15
194.0,24.53209629055,60,0.036,7.77e-09,636000000.0,132.0,15
195.0,24.5465103149,60,0.036,7.77e-09,636000000.0,132.0,15
196.0,24.56092433925,60,0.036,7.77e-09,636000000.0,132.0,15
197.0,24.5753383636,60,0.036,7.77e-09,636000000.0,132.0,15
198.0,24.58969402309,60,0.036,7.77e-09,636000000.0,132.0,15
199.0,24.60404968258,60,0.036,7.77e-09,636000000.0,132.0,15
200.0,24.61840534207,60,0.036,7.77e-09,636000000.0,132.0,15
201.0,24.63276100156,60,0.036,7.77e-09,636000000.0,132.0,15
202.0,24.64711666105,60,0.036,7.77e-09,636000000.0,132.0,15
203.0,24.66147232054,60,0.036,7.77e-09,636000000.0,132.0,15
204.0,24.67582798003,60,0.036,7.77e-09,636000000.0,132.0,15
205.0,24.69018363952,60,0.036,7.77e-09,636000000.0,132.0,15
206.0,24.70453929901,60,0.036,7.77e-09,636000000.0,132.0,15
207.0,24.7188949585,60,0.036,7.77e-09,636000000.0,132.0,15
208.0,24.73319244385,60,0.036,7.77e-09,636000000.0,132.0,15
209.0,24.7474899292,60,0.036,7.77e-09,636000000.0,132.0,15
210.0,24.76178741455,60,0.036,7.77e-09,636000000.0,132.0,15
211.0,24.7760848999,60,0.036,7.77e-09,636000000.0,132.0,15
212.0,24.79038238525,60,0.036,7.77e-09,636000000.0,132.0,15
213.0,24.8046798706,60,0.036,7.77e-09,636000000.0,132.0,15
214.0,24.81897735595,60,0.036,7.77e-09,636000000.0,132.0,15
215.0,24.8332748413,60,0.036,7.77e-09,636000000.0,132.0,15
216.0,24.84757232665,60,0.036,7.77e-09,636000000.0,132.0,15
217.0,24.861869812,60,0.036,7.77e-09,636000000.0,132.0,15
218.0,24.87610931395,60,0.036,7.77e-09,636000000.0,132.0,15
219.0,24.8903488159,60,0.036,7.77e-09,636000000.0,132.0,15
220.0,24.90458831785,60,0.036,7.77e-09,636000000.0,132.0,15
221.0,24.9188278198,60,0.036,7.77e-09,636000000.0,132.0,15
222.0,24.93306732175,60,0.036,7.77e-09,636000000.0,132.0,15
223.0,24.9473068237,60,0.036,7.77e-09,636000000.0,132.0,15
224.0,24.96154632565,60,0.036,7.77e-09,636000000.0,132.0,15
225.0,24.9757858276,60,0.036,7.77e-09,636000000.0,132.0,15
226.0,24.99002532955,60,0.036,7.77e-09,636000000.0,132.0,15
227.0,25.0042648315,60,0.036,7.77e-09,636000000.0,132.0,15
228.0,25.01844673153,60,0.036,7.77e-09,636000000.0,132.0,15
229.0,25.03262863156,60,0.036,7.77e-09,636000000.0,132.0,15
230.0,25.04681053159,60,0.036,7.77e-09,636000000.0,132.0,15
231.0,25.06099243162,60,0.036,7.77e-09,636000000.0,132.0,15
232.0,25.07517433165,60,0.036,7.77e-09,636000000.0,132.0,15
233.0,25.08935623168,60,0.036,7.77e-09,636000000.0,132.0,15
234.0,25.10353813171,60,0.036,7.77e-09,636000000.0,132.0,15
235.0,25.11772003174,60,0.036,7.77e-09,636000000.0,132.0,15
236.0,25.13190193177,60,0.036,7.77e-09,636000000.0,132.0,15
237.0,25.1460838318,60,0.036,7.77e-09,636000000.0,132.0,15
238.0,25.16020812989,60,0.036,7.77e-09,636000000.0,132.0,15
239.0,25.17433242798,60,0.036,7.77e-09,636000000.0,132.0,15
240.0,25.18845672607,60,0.036,7.77e-09,636000000.0,132.0,15
241.0,25.20258102416,60,0.036,7.77e-09,636000000.0,132.0,15
242.0,25.21670532225,60,0.036,7.77e-09,636000000.0,132.0,15
243.0,25.23082962034,60,0.036,7.77e-09,636000000.0,132.0,15
244.0,25.24495391843,60,0.036,7.77e-09,636000000.0,132.0,15
245.0,25.25907821652,60,0.036,7.77e-09,636000000.0,132.0,15
246.0,25.27320251461,60,0.036,7.77e-09,636000000.0,132.0,15
247.0,25.2873268127,60,0.036,7.77e-09,636000000.0,132.0,15
248.0,25.30139408108,60,0.036,7.77e-09,636000000.0,132.0,15
249.0,25.31546134946,60,0.036,7.77e-09,636000000.0,132.0,15
250.0,25.32952861784,60,0.036,7.77e-09,636000000.0,132.0,15
251.0,25.34359588622,60,0.036,7.77e-09,636000000.0,132.0,15
252.0,25.3576631546,60,0.036,7.77e-09,636000000.0,132.0,15
253.0,25.37173042298,60,0.036,7.77e-09,636000000.0,132.0,15
254.0,25.38579769136,60,0.036,7.77e-09,636000000.0,132.0,15
255.0,25.39986495974,60,0.036,7.77e-09,636000000.0,132.0,15
256.0,25.41393222812,60,0.036,7.77e-09,636000000.0,132.0,15
257.0,25.4279994965,60,0.036,7.77e-09,636000000.0,132.0,15
258.0,25.44200954441,60,0.036,7.77e-09,636000000.0,132.0,15
259.0,25.45601959232,60,0.036,7.77e-09,636000000.0,132.0,15
260.0,25.47002964023,60,0.036,7.77e-09,636000000.0,132.0,15
261.0,25.48403968814,60,0.036,7.77e-09,636000000.0,132.0,15
262.0,25.49804973605,60,0.036,7.77e-09,636000000.0,132.0,15
263.0,25.51205978396,60,0.036,7.77e-09,636000000.0,132.0,15
264.0,25.52606983187,60,0.036,7.77e-09,636000000.0,132.0,15
265.0,25.54007987978,60,0.036,7.77e-09,636000000.0,132.0,15
266.0,25.55408992769,60,0.036,7.77e-09,636000000.0,132.0,15
267.0,25.5680999756,60,0.036,7.77e-09,636000000.0,132.0,15
268.0,25.58205337526,60,0.036,7.77e-09,636000000.0,132.0,15
269.0,25.59600677492,60,0.036,7.77e-09,636000000.0,132.0,15
270.0,25.60996017458,60,0.036,7.77e-09,636000000.0,132.0,15
271.0,25.62391357424,60,0.036,7.77e-09,636000000.0,132.0,15
272.0,25.6378669739,60,0.036,7.77e-09,636000000.0,132.0,15
273.0,25.65182037356,60,0.036,7.77e-09,636000000.0,132.0,15
274.0,25.66577377322,60,0.036,7.77e-09,636000000.0,132.0,15
275.0,25.67972717288,60,0.036,7.77e-09,636000000.0,132.0,15
276.0,25.69368057254,60,0.036,7.77e-09,636000000.0,132.0,15
277.0,25.7076339722,60,0.036,7.77e-09,636000000.0,132.0,15
278.0,25.7215307236,60,0.036,7.77e-09,636000000.0,132.0,15
279.0,25.735427475,60,0.036,7.77e-09,636000000.0,132.0,15
280.0,25.7493242264,60,0.036,7.77e-09,636000000.0,132.0,15
281.0,25.7632209778,60,0.036,7.77e-09,636000000.0,132.0,15
282.0,25.7771177292,60,0.036,7.77e-09,636000000.0,132.0,15
283.0,25.7910144806,60,0.036,7.77e-09,636000000.0,132.0,15
284.0,25.804911232,60,0.036,7.77e-09,636000000.0,132.0,15
285.0,25.8188079834,60,0.036,7.77e-09,636000000.0,132.0,15
286.0,25.8327047348,60,0.036,7.77e-09,636000000.0,132.0,15
287.0,25.8466014862,60,0.036,7.77e-09,636000000.0,132.0,15
288.0,25.86044216155,60,0.036,7.77e-09,636000000.0,132.0,15
289.0,25.8742828369,60,0.036,7.77e-09,636000000.0,132.0,15
290.0,25.88812351225,60,0.036,7.77e-09,636000000.0,132.0,15
291.0,25.9019641876,60,0.036,7.77e-09,636000000.0,132.0,15
292.0,25.91580486295,60,0.036,7.77e-09,636000000.0,132.0,15
293.0,25.9296455383,60,0.036,7.77e-09,636000000.0,132.0,15
294.0,25.94348621365,60,0.036,7.77e-09,636000000.0,132.0,15
295.0,25.957326889,60,0.036,7.77e-09,636000000.0,132.0,15
296.0,25.97116756435,60,0.036,7.77e-09,636000000.0,132.0,15
297.0,25.9850082397,60,0.036,7.77e-09,636000000.0,132.0,15
298.0,25.99879264827,60,0.036,7.77e-09,636000000.0,132.0,15
299.0,26.01257705684,60,0.036,7.77e-09,636000000.0,132.0,15
300.0,26.02636146541,60,0.036,7.77e-09,636000000.0,132.0,15
301.0,26.04014587398,60,0.036,7.77e-09,636000000.0,132.0,15
302.0,26.05393028255,60,0.036,7.77e-09,636000000.0,132.0,15
303.0,26.06771469112,60,0.036,7.77e-09,636000000.0,132.0,15
304.0,26.08149909969,60,0.036,7.77e-09,636000000.0,132.0,15
305.0,26.09528350826,60,0.036,7.77e-09,636000000.0,132.0,15
306.0,26.10906791683,60,0.036,7.77e-09,636000000.0,132.0,15
307.0,26.1228523254,60,0.036,7.77e-09,636000000.0,132.0,15
308.0,26.13658084866,60,0.036,7.77e-09,636000000.0,132.0,15
309.0,26.15030937192,60,0.036,7.77e-09,636000000.0,132.0,15
310.0,26.16403789518,60,0.036,7.77e-09,636000000.0,132.0,15
311.0,26.17776641844,60,0.036,7.77e-09,636000000.0,132.0,15
312.0,26.1914949417,60,0.036,7.77e-09,636000000.0,132.0,15
313.0,26.20522346496,60,0.036,7.77e-09,636000000.0,132.0,15
314.0,26.21895198822,60,0.036,7.77e-09,636000000.0,132.0,15
315.0,26.23268051148,60,0.036,7.77e-09,636000000.0,132.0,15
316.0,26.24640903474,60,0.036,7.77e-09,636000000.0,132.0,15
317.0,26.260137558,60,0.036,7.77e-09,636000000.0,132.0,15
318.0,26.27381038667,60,0.036,7.77e-09,636000000.0,132.0,15
319.0,26.28748321534,60,0.036,7.77e-09,636000000.0,132.0,15
320.0,26.30115604401,60,0.036,7.77e-09,636000000.0,132.0,15
321.0,26.31482887268,60,0.036,7.77e-09,636000000.0,132.0,15
322.0,26.32850170135,60,0.036,7.77e-09,636000000.0,132.0,15
323.0,26.34217453002,60,0.036,7.77e-09,636000000.0,132.0,15
324.0,26.35584735869,60,0.036,7.77e-09,636000000.0,132.0,15
325.0,26.36952018736,60,0.036,7.77e-09,636000000.0,132.0,15
326.0,26.38319301603,60,0.036,7.77e-09,636000000.0,132.0,15
327.0,26.3968658447,60,0.036,7.77e-09,636000000.0,132.0,15
328.0,26.410483551,60,0.036,7.77e-09,636000000.0,132.0,15
329.0,26.4241012573,60,0.036,7.77e-09,636000000.0,132.0,15
330.0,26.4377189636,60,0.036,7.77e-09,636000000.0,132.0,15
331.0,26.4513366699,60,0.036,7.77e-09,636000000.0,132.0,15
