time,T_int,T_ext_1,Film_Coef,Density,Specific_Heat,Thermal_Conductivity,Radius
1.0,21.9190292358,22.88,0.036,7.87e-09,186000000.0,152.0,15
2.0,21.8557033539,23.76,0.036,7.87e-09,186000000.0,152.0,15
3.0,21.8017463684,24.64,0.036,7.87e-09,186000000.0,152.0,15
4.0,21.7588777542,25.52,0.036,7.87e-09,186000000.0,152.0,15
5.0,21.71600914,26.4,0.036,7.87e-09,186000000.0,152.0,15
6.0,21.689980506875,27.28,0.036,7.87e-09,186000000.0,152.0,15
7.0,21.66395187375,28.16,0.036,7.87e-09,186000000.0,152.0,15
8.0,21.637923240625,29.04,0.036,7.87e-09,186000000.0,152.0,15
9.0,21.6118946075,29.92,0.036,7.87e-09,186000000.0,152.0,15
10.0,21.61652898785,30.8,0.036,7.87e-09,186000000.0,152.0,15
11.0,21.6211633682,31.68,0.036,7.87e-09,186000000.0,152.0,15
12.0,21.62579774855,32.56,0.036,7.87e-09,186000000.0,152.0,15
13.0,21.6304321289,33.44,0.036,7.87e-09,186000000.0,152.0,15
14.0,21.63506650925,34.32,0.036,7.87e-09,186000000.0,152.0,15
15.0,21.6397008896,35.2,0.036,7.87e-09,186000000.0,152.0,15
16.0,21.64433526995,36.08,0.036,7.87e-09,186000000.0,152.0,15
17.0,21.6489696503,36.96,0.036,7.87e-09,186000000.0,152.0,15
18.0,21.69069862369,37.84,0.036,7.87e-09,186000000.0,152.0,15
19.0,21.73242759708,38.72,0.036,7.87e-09,186000000.0,152.0,15
20.0,21.77415657047,39.6,0.036,7.87e-09,186000000.0,152.0,15
21.0,21.81588554386,40.48,0.036,7.87e-09,186000000.0,152.0,15
22.0,21.85761451725,41.36,0.036,7.87e-09,186000000.0,152.0,15
23.0,21.89934349064,42.24,0.036,7.87e-09,186000000.0,152.0,15
24.0,21.94107246403,43.12,0.036,7.87e-09,186000000.0,152.0,15
25.0,21.98280143742,44.0,0.036,7.87e-09,186000000.0,152.0,15
26.0,22.02453041081,44.88,0.036,7.87e-09,186000000.0,152.0,15
27.0,22.0662593842,45.76,0.036,7.87e-09,186000000.0,152.0,15
28.0,22.14414272312,46.64,0.036,7.87e-09,186000000.0,152.0,15
29.0,22.22202606204,47.52,0.036,7.87e-09,186000000.0,152.0,15
30.0,22.29990940096,48.4,0.036,7.87e-09,186000000.0,152.0,15
31.0,22.37779273988,49.28,0.036,7.87e-09,186000000.0,152.0,15
32.0,22.4556760788,50.16,0.036,7.87e-09,186000000.0,152.0,15
33.0,22.53355941772,51.04,0.036,7.87e-09,186000000.0,152.0,15
34.0,22.61144275664,51.92,0.036,7.87e-09,186000000.0,152.0,15
35.0,22.68932609556,52.8,0.036,7.87e-09,186000000.0,152.0,15
36.0,22.76720943448,53.68,0.036,7.87e-09,186000000.0,152.0,15
37.0,22.8450927734,54.56,0.036,7.87e-09,186000000.0,152.0,15
38.0,22.9255377445564,55.44,0.036,7.87e-09,186000000.0,152.0,15
39.0,23.0328391841135,56.32,0.036,7.87e-09,186000000.0,152.0,15
40.0,23.1401406236707,57.2,0.036,7.87e-09,186000000.0,152.0,15
41.0,23.2474420632278,58.08,0.036,7.87e-09,186000000.0,152.0,15
42.0,23.354743502785,58.96,0.036,7.87e-09,186000000.0,152.0,15
43.0,23.4620449423421,59.84,0.036,7.87e-09,186000000.0,152.0,15
44.250289917,23.5962028503,60.940255127,0.036,7.87e-09,186000000.0,152.0,15
45.250289917,23.6910787583804,61.820255127,0.036,7.87e-09,186000000.0,152.0,15
46.250289917,23.8176288878661,62.700255127,0.036,7.87e-09,186000000.0,152.0,15
47.250289917,23.9441790173518,63.580255127,0.036,7.87e-09,186000000.0,152.0,15
48.250289917,24.0707291468375,64.460255127,0.036,7.87e-09,186000000.0,152.0,15
49.250289917,24.1972792763233,65.340255127,0.036,7.87e-09,186000000.0,152.0,15
50.250289917,24.323829405809,62.984982605,0.036,7.87e-09,186000000.0,152.0,15
51.500579834,24.4820537567,62.90996521,0.036,7.87e-09,186000000.0,152.0,15
52.500579834,24.5717019407735,62.84996521,0.036,7.87e-09,186000000.0,152.0,15
53.500579834,24.6912790761306,62.78996521,0.036,7.87e-09,186000000.0,152.0,15
54.500579834,24.8108562114878,62.72996521,0.036,7.87e-09,186000000.0,152.0,15
55.500579834,24.9304333468449,62.66996521,0.036,7.87e-09,186000000.0,152.0,15
56.500579834,25.0500104822021,62.60996521,0.036,7.87e-09,186000000.0,152.0,15
57.500579834,25.1695876175592,62.54996521,0.036,7.87e-09,186000000.0,152.0,15
58.750869751,25.3190937042,62.4749478149,0.036,7.87e-09,186000000.0,152.0,15
59.750869751,25.404917974966,62.4149478149,0.036,7.87e-09,186000000.0,152.0,15
60.750869751,25.5193945876089,62.3549478149,0.036,7.87e-09,186000000.0,152.0,15
61.750869751,25.6338712002518,62.2949478149,0.036,7.87e-09,186000000.0,152.0,15
62.750869751,25.7483478128946,62.2349478149,0.036,7.87e-09,186000000.0,152.0,15
63.750869751,25.8628244255375,62.1749478149,0.036,7.87e-09,186000000.0,152.0,15
64.750869751,25.9773010381803,62.1149478149,0.036,7.87e-09,186000000.0,152.0,15
66.001159668,26.1204299927,62.0399304199,0.036,7.87e-09,186000000.0,152.0,15
67.001159668,26.2026039879619,61.9799304199,0.036,7.87e-09,186000000.0,152.0,15
68.001159668,26.3122116844904,61.9199304199,0.036,7.87e-09,186000000.0,152.0,15
69.001159668,26.421819381019,61.8599304199,0.036,7.87e-09,186000000.0,152.0,15
70.001159668,26.5314270775476,61.7999304199,0.036,7.87e-09,186000000.0,152.0,15
71.001159668,26.6410347740762,61.7399304199,0.036,7.87e-09,186000000.0,152.0,15
72.001159668,26.7506424706047,61.6799304199,0.036,7.87e-09,186000000.0,152.0,15
73.251449585,26.8876838684,61.6049130249,0.036,7.87e-09,186000000.0,152.0,15
74.251449585,26.9662641736722,61.5449130249,0.036,7.87e-09,186000000.0,152.0,15
75.251449585,27.0710784306151,61.4849130249,0.036,7.87e-09,186000000.0,152.0,15
76.251449585,27.1758926875579,61.4249130249,0.036,7.87e-09,186000000.0,152.0,15
77.251449585,27.2807069445008,61.3649130249,0.036,7.87e-09,186000000.0,152.0,15
78.251449585,27.3855212014436,61.3049130249,0.036,7.87e-09,186000000.0,152.0,15
79.251449585,27.4903354583865,61.2449130249,0.036,7.87e-09,186000000.0,152.0,15
80.501739502,27.621383667,61.1698956299,0.036,7.87e-09,186000000.0,152.0,15
81.501739502,27.6964250292716,61.1098956299,0.036,7.87e-09,186000000.0,152.0,15
82.501739502,27.7965188708287,61.0498956299,0.036,7.87e-09,186000000.0,152.0,15
83.501739502,27.8966127123859,60.9898956299,0.036,7.87e-09,186000000.0,152.0,15
84.501739502,27.996706553943,60.9298956299,0.036,7.87e-09,186000000.0,152.0,15
85.501739502,28.0968003955002,60.8698956299,0.036,7.87e-09,186000000.0,152.0,15
86.501739502,28.1968942370573,60.8098956299,0.036,7.87e-09,186000000.0,152.0,15
87.7520294189,28.3220405579,60.7348782349,0.036,7.87e-09,186000000.0,152.0,15
88.7520294189,28.3936048739223,60.6748782349,0.036,7.87e-09,186000000.0,152.0,15
89.7520294189,28.4890608610366,60.6148782349,0.036,7.87e-09,186000000.0,152.0,15
90.7520294189,28.5845168481509,60.5548782349,0.036,7.87e-09,186000000.0,152.0,15
91.7520294189,28.6799728352652,60.4948782349,0.036,7.87e-09,186000000.0,152.0,15
92.7520294189,28.7754288223794,60.4348782349,0.036,7.87e-09,186000000.0,152.0,15
93.7520294189,28.8708848094937,60.3748782349,0.036,7.87e-09,186000000.0,152.0,15
95.0023193359,28.9902324677,60.2998608398,0.036,7.87e-09,186000000.0,152.0,15
96.0023193359,29.0590287926105,60.2398608398,0.036,7.87e-09,186000000.0,152.0,15
97.0023193359,29.1507926977247,60.1798608398,0.036,7.87e-09,186000000.0,152.0,15
98.0023193359,29.242556602839,60.1198608398,0.036,7.87e-09,186000000.0,152.0,15
99.0023193359,29.3343205079533,60.0598608398,0.036,7.87e-09,186000000.0,152.0,15
100.0023193359,29.4260844130676,60,0.036,7.87e-09,186000000.0,152.0,15
101.0023193359,29.5178483181819,60,0.036,7.87e-09,186000000.0,152.0,15
102.252609253,29.6325798035,60,0.036,7.87e-09,186000000.0,152.0,15
103.252609253,29.7000481055269,60,0.036,7.87e-09,186000000.0,152.0,15
104.252609253,29.7900406287127,60,0.036,7.87e-09,186000000.0,152.0,15
105.252609253,29.8800331518984,60,0.036,7.87e-09,186000000.0,152.0,15
106.252609253,29.9700256750841,60,0.036,7.87e-09,186000000.0,152.0,15
107.252609253,30.0600181982698,60,0.036,7.87e-09,186000000.0,152.0,15
108.252609253,30.1500107214555,60,0.036,7.87e-09,186000000.0,152.0,15
109.50289917,30.2625274658,60,0.036,7.87e-09,186000000.0,152.0,15
110.50289917,30.3285991069412,60,0.036,7.87e-09,186000000.0,152.0,15
111.50289917,30.4167286954841,60,0.036,7.87e-09,186000000.0,152.0,15
112.50289917,30.5048582840269,60,0.036,7.87e-09,186000000.0,152.0,15
113.50289917,30.5929878725698,60,0.036,7.87e-09,186000000.0,152.0,15
114.50289917,30.6811174611127,60,0.036,7.87e-09,186000000.0,152.0,15
115.50289917,30.7692470496555,60,0.036,7.87e-09,186000000.0,152.0,15
116.753189087,30.8794345856,60,0.036,7.87e-09,186000000.0,152.0,15
117.753189087,30.9441310152109,60,0.036,7.87e-09,186000000.0,152.0,15
118.753189087,31.0304262793109,60,0.036,7.87e-09,186000000.0,152.0,15
119.753189087,31.1167215434109,60,0.036,7.87e-09,186000000.0,152.0,15
120.753189087,31.2030168075109,60,0.036,7.87e-09,186000000.0,152.0,15
121.753189087,31.2893120716109,60,0.036,7.87e-09,186000000.0,152.0,15
122.753189087,31.3756073357109,60,0.036,7.87e-09,186000000.0,152.0,15
124.003479004,31.4835014343,60,0.036,7.87e-09,186000000.0,152.0,15
125.003479004,31.5468530900852,60,0.036,7.87e-09,186000000.0,152.0,15
126.003479004,31.6313546290423,60,0.036,7.87e-09,186000000.0,152.0,15
127.003479004,31.7158561679995,60,0.036,7.87e-09,186000000.0,152.0,15
128.003479004,31.8003577069566,60,0.036,7.87e-09,186000000.0,152.0,15
129.003479004,31.8848592459138,60,0.036,7.87e-09,186000000.0,152.0,15
130.003479004,31.9693607848709,60,0.036,7.87e-09,186000000.0,152.0,15
131.253768921,32.075012207,60,0.036,7.87e-09,186000000.0,152.0,15
132.253768921,32.1370478924031,60,0.036,7.87e-09,186000000.0,152.0,15
133.253768921,32.2197941256603,60,0.036,7.87e-09,186000000.0,152.0,15
134.253768921,32.3025403589174,60,0.036,7.87e-09,186000000.0,152.0,15
135.253768921,32.3852865921746,60,0.036,7.87e-09,186000000.0,152.0,15
136.253768921,32.4680328254317,60,0.036,7.87e-09,186000000.0,152.0,15
137.253768921,32.5507790586889,60,0.036,7.87e-09,186000000.0,152.0,15
138.504058838,32.6542358398,60,0.036,7.87e-09,186000000.0,152.0,15
139.504058838,32.7149837454411,60,0.036,7.87e-09,186000000.0,152.0,15
140.504058838,32.7960122750268,60,0.036,7.87e-09,186000000.0,152.0,15
141.504058838,32.8770408046125,60,0.036,7.87e-09,186000000.0,152.0,15
142.504058838,32.9580693341982,60,0.036,7.87e-09,186000000.0,152.0,15
143.504058838,33.0390978637839,60,0.036,7.87e-09,186000000.0,152.0,15
144.504058838,33.1201263933696,60,0.036,7.87e-09,186000000.0,152.0,15
145.754348755,33.2214355469,60,0.036,7.87e-09,186000000.0,152.0,15
146.754348755,33.2974460602,60,0.036,7.87e-09,186000000.0,152.0,15
147.754348755,33.3734565735,60,0.036,7.87e-09,186000000.0,152.0,15
148.754348755,33.4494670868,60,0.036,7.87e-09,186000000.0,152.0,15
149.754348755,33.5254776001,60,0.036,7.87e-09,186000000.0,152.0,15
150.754348755,33.6014881134,60,0.036,7.87e-09,186000000.0,152.0,15
151.754348755,33.6774986267,60,0.036,7.87e-09,186000000.0,152.0,15
152.754348755,33.75350914,60,0.036,7.87e-09,186000000.0,152.0,15
153.754348755,33.8295196533,60,0.036,7.87e-09,186000000.0,152.0,15
154.754348755,33.9055301666,60,0.036,7.87e-09,186000000.0,152.0,15
155.754348755,33.9815406799,60,0.036,7.87e-09,186000000.0,152.0,15
156.754348755,34.05539321897,60,0.036,7.87e-09,186000000.0,152.0,15
157.754348755,34.12924575804,60,0.036,7.87e-09,186000000.0,152.0,15
158.754348755,34.20309829711,60,0.036,7.87e-09,186000000.0,152.0,15
159.754348755,34.27695083618,60,0.036,7.87e-09,186000000.0,152.0,15
160.754348755,34.35080337525,60,0.036,7.87e-09,186000000.0,152.0,15
161.754348755,34.42465591432,60,0.036,7.87e-09,186000000.0,152.0,15
162.754348755,34.49850845339,60,0.036,7.87e-09,186000000.0,152.0,15
163.754348755,34.57236099246,60,0.036,7.87e-09,186000000.0,152.0,15
164.754348755,34.64621353153,60,0.036,7.87e-09,186000000.0,152.0,15
165.754348755,34.7200660706,60,0.036,7.87e-09,186000000.0,152.0,15
166.754348755,34.79182243351,60,0.036,7.87e-09,186000000.0,152.0,15
167.754348755,34.86357879642,60,0.036,7.87e-09,186000000.0,152.0,15
168.754348755,34.93533515933,60,0.036,7.87e-09,186000000.0,152.0,15
169.754348755,35.00709152224,60,0.036,7.87e-09,186000000.0,152.0,15
170.754348755,35.07884788515,60,0.036,7.87e-09,186000000.0,152.0,15
171.754348755,35.15060424806,60,0.036,7.87e-09,186000000.0,152.0,15
172.754348755,35.22236061097,60,0.036,7.87e-09,186000000.0,152.0,15
173.754348755,35.29411697388,60,0.036,7.87e-09,186000000.0,152.0,15
174.754348755,35.36587333679,60,0.036,7.87e-09,186000000.0,152.0,15
175.754348755,35.4376296997,60,0.036,7.87e-09,186000000.0,152.0,15
176.754348755,35.50734901428,60,0.036,7.87e-09,186000000.0,152.0,15
177.754348755,35.57706832886,60,0.036,7.87e-09,186000000.0,152.0,15
178.754348755,35.64678764344,60,0.036,7.87e-09,186000000.0,152.0,15
179.754348755,35.71650695802,60,0.036,7.87e-09,186000000.0,152.0,15
180.754348755,35.7862262726,60,0.036,7.87e-09,186000000.0,152.0,15
181.754348755,35.85594558718,60,0.036,7.87e-09,186000000.0,152.0,15
182.754348755,35.92566490176,60,0.036,7.87e-09,186000000.0,152.0,15
183.754348755,35.99538421634,60,0.036,7.87e-09,186000000.0,152.0,15
184.754348755,36.06510353092,60,0.036,7.87e-09,186000000.0,152.0,15
185.754348755,36.1348228455,60,0.036,7.87e-09,186000000.0,152.0,15
186.754348755,36.20256309513,60,0.036,7.87e-09,186000000.0,152.0,15
187.754348755,36.27030334476,60,0.036,7.87e-09,186000000.0,152.0,15
188.754348755,36.33804359439,60,0.036,7.87e-09,186000000.0,152.0,15
189.754348755,36.40578384402,60,0.036,7.87e-09,186000000.0,152.0,15
190.754348755,36.47352409365,60,0.036,7.87e-09,186000000.0,152.0,15
191.754348755,36.54126434328,60,0.036,7.87e-09,186000000.0,152.0,15
192.754348755,36.60900459291,60,0.036,7.87e-09,186000000.0,152.0,15
193.754348755,36.67674484254,60,0.036,7.87e-09,186000000.0,152.0,15
194.754348755,36.74448509217,60,0.036,7.87e-09,186000000.0,152.0,15
195.754348755,36.8122253418,60,0.036,7.87e-09,186000000.0,152.0,15
196.754348755,36.87804298401,60,0.036,7.87e-09,186000000.0,152.0,15
197.754348755,36.94386062622,60,0.036,7.87e-09,186000000.0,152.0,15
198.754348755,37.00967826843,60,0.036,7.87e-09,186000000.0,152.0,15
199.754348755,37.07549591064,60,0.036,7.87e-09,186000000.0,152.0,15
200.754348755,37.14131355285,60,0.036,7.87e-09,186000000.0,152.0,15
201.754348755,37.20713119506,60,0.036,7.87e-09,186000000.0,152.0,15
202.754348755,37.27294883727,60,0.036,7.87e-09,186000000.0,152.0,15
203.754348755,37.33876647948,60,0.036,7.87e-09,186000000.0,152.0,15
204.754348755,37.40458412169,60,0.036,7.87e-09,186000000.0,152.0,15
205.754348755,37.4704017639,60,0.036,7.87e-09,186000000.0,152.0,15
206.754348755,37.53435134886,60,0.036,7.87e-09,186000000.0,152.0,15
207.754348755,37.59830093382,60,0.036,7.87e-09,186000000.0,152.0,15
208.754348755,37.66225051878,60,0.036,7.87e-09,186000000.0,152.0,15
209.754348755,37.72620010374,60,0.036,7.87e-09,186000000.0,152.0,15
210.754348755,37.7901496887,60,0.036,7.87e-09,186000000.0,152.0,15
211.754348755,37.85409927366,60,0.036,7.87e-09,186000000.0,152.0,15
212.754348755,37.91804885862,60,0.036,7.87e-09,186000000.0,152.0,15
213.754348755,37.98199844358,60,0.036,7.87e-09,186000000.0,152.0,15
214.754348755,38.04594802854,60,0.036,7.87e-09,186000000.0,152.0,15
215.754348755,38.1098976135,60,0.036,7.87e-09,186000000.0,152.0,15
216.754348755,38.17203178403,60,0.036,7.87e-09,186000000.0,152.0,15
217.754348755,38.23416595456,60,0.036,7.87e-09,186000000.0,152.0,15
218.754348755,38.29630012509,60,0.036,7.87e-09,186000000.0,152.0,15
219.754348755,38.35843429562,60,0.036,7.87e-09,186000000.0,152.0,15
220.754348755,38.42056846615,60,0.036,7.87e-09,186000000.0,152.0,15
221.754348755,38.48270263668,60,0.036,7.87e-09,186000000.0,152.0,15
222.754348755,38.54483680721,60,0.036,7.87e-09,186000000.0,152.0,15
223.754348755,38.60697097774,60,0.036,7.87e-09,186000000.0,152.0,15
224.754348755,38.66910514827,60,0.036,7.87e-09,186000000.0,152.0,15
225.754348755,38.7312393188,60,0.036,7.87e-09,186000000.0,152.0,15
226.754348755,38.79160995479,60,0.036,7.87e-09,186000000.0,152.0,15
227.754348755,38.85198059078,60,0.036,7.87e-09,186000000.0,152.0,15
228.754348755,38.91235122677,60,0.036,7.87e-09,186000000.0,152.0,15
229.754348755,38.97272186276,60,0.036,7.87e-09,186000000.0,152.0,15
230.754348755,39.03309249875,60,0.036,7.87e-09,186000000.0,152.0,15
231.754348755,39.09346313474,60,0.036,7.87e-09,186000000.0,152.0,15
232.754348755,39.15383377073,60,0.036,7.87e-09,186000000.0,152.0,15
233.754348755,39.21420440672,60,0.036,7.87e-09,186000000.0,152.0,15
234.754348755,39.27457504271,60,0.036,7.87e-09,186000000.0,152.0,15
235.754348755,39.3349456787,60,0.036,7.87e-09,186000000.0,152.0,15
236.754348755,39.39360237121,60,0.036,7.87e-09,186000000.0,152.0,15
237.754348755,39.45225906372,60,0.036,7.87e-09,186000000.0,152.0,15
238.754348755,39.51091575623,60,0.036,7.87e-09,186000000.0,152.0,15
239.754348755,39.56957244874,60,0.036,7.87e-09,186000000.0,152.0,15
240.754348755,39.62822914125,60,0.036,7.87e-09,186000000.0,152.0,15
241.754348755,39.68688583376,60,0.036,7.87e-09,186000000.0,152.0,15
242.754348755,39.74554252627,60,0.036,7.87e-09,186000000.0,152.0,15
243.754348755,39.80419921878,60,0.036,7.87e-09,186000000.0,152.0,15
244.754348755,39.86285591129,60,0.036,7.87e-09,186000000.0,152.0,15
245.754348755,39.9215126038,60,0.036,7.87e-09,186000000.0,152.0,15
246.754348755,39.97850456241,60,0.036,7.87e-09,186000000.0,152.0,15
247.754348755,40.03549652102,60,0.036,7.87e-09,186000000.0,152.0,15
248.754348755,40.09248847963,60,0.036,7.87e-09,186000000.0,152.0,15
249.754348755,40.14948043824,60,0.036,7.87e-09,186000000.0,152.0,15
250.754348755,40.20647239685,60,0.036,7.87e-09,186000000.0,152.0,15
251.754348755,40.26346435546,60,0.036,7.87e-09,186000000.0,152.0,15
252.754348755,40.32045631407,60,0.036,7.87e-09,186000000.0,152.0,15
253.754348755,40.37744827268,60,0.036,7.87e-09,186000000.0,152.0,15
254.754348755,40.43444023129,60,0.036,7.87e-09,186000000.0,152.0,15
255.754348755,40.4914321899,60,0.036,7.87e-09,186000000.0,152.0,15
256.754348755,40.5468058719201,60,0.036,7.87e-09,186000000.0,152.0,15
257.754348755,40.6021803989001,60,0.036,7.87e-09,186000000.0,152.0,15
258.754348755,40.6575549258801,60,0.036,7.87e-09,186000000.0,152.0,15
259.754348755,40.7129294528601,60,0.036,7.87e-09,186000000.0,152.0,15
260.754348755,40.7683039798401,60,0.036,7.87e-09,186000000.0,152.0,15
261.754348755,40.8236785068201,60,0.036,7.87e-09,186000000.0,152.0,15
262.754348755,40.8790530338001,60,0.036,7.87e-09,186000000.0,152.0,15
263.754348755,40.9344275607801,60,0.036,7.87e-09,186000000.0,152.0,15
264.754348755,40.9898020877601,60,0.036,7.87e-09,186000000.0,152.0,15
265.754364014,41.0451774597,60,0.036,7.87e-09,186000000.0,152.0,15
266.754364014,41.09897994994,60,0.036,7.87e-09,186000000.0,152.0,15
267.754364014,41.15278244018,60,0.036,7.87e-09,186000000.0,152.0,15
268.754364014,41.20658493042,60,0.036,7.87e-09,186000000.0,152.0,15
269.754364014,41.26038742066,60,0.036,7.87e-09,186000000.0,152.0,15
270.754364014,41.3141899109,60,0.036,7.87e-09,186000000.0,152.0,15
271.754364014,41.36799240114,60,0.036,7.87e-09,186000000.0,152.0,15
272.754364014,41.42179489138,60,0.036,7.87e-09,186000000.0,152.0,15
273.754364014,41.47559738162,60,0.036,7.87e-09,186000000.0,152.0,15
274.754364014,41.52939987186,60,0.036,7.87e-09,186000000.0,152.0,15
275.754364014,41.5832023621,60,0.036,7.87e-09,186000000.0,152.0,15
276.754364014,41.63547782901,60,0.036,7.87e-09,186000000.0,152.0,15
277.754364014,41.68775329592,60,0.036,7.87e-09,186000000.0,152.0,15
278.754364014,41.74002876283,60,0.036,7.87e-09,186000000.0,152.0,15
279.754364014,41.79230422974,60,0.036,7.87e-09,186000000.0,152.0,15
280.754364014,41.84457969665,60,0.036,7.87e-09,186000000.0,152.0,15
281.754364014,41.89685516356,60,0.036,7.87e-09,186000000.0,152.0,15
282.754364014,41.94913063047,60,0.036,7.87e-09,186000000.0,152.0,15
283.754364014,42.00140609738,60,0.036,7.87e-09,186000000.0,152.0,15
284.754364014,42.05368156429,60,0.036,7.87e-09,186000000.0,152.0,15
285.754364014,42.1059570312,60,0.036,7.87e-09,186000000.0,152.0,15
286.754364014,42.15674858089,60,0.036,7.87e-09,186000000.0,152.0,15
287.754364014,42.20754013058,60,0.036,7.87e-09,186000000.0,152.0,15
288.754364014,42.25833168027,60,0.036,7.87e-09,186000000.0,152.0,15
289.754364014,42.30912322996,60,0.036,7.87e-09,186000000.0,152.0,15
290.754364014,42.35991477965,60,0.036,7.87e-09,186000000.0,152.0,15
