time,T_int,T_ext_1,Film_Coef,Density,Specific_Heat,Thermal_Conductivity,Radius
1.0,21.9746055603,22.88,0.036,7.47e-09,236000000.0,112.0,25
2.0,21.9546756744,23.76,0.036,7.47e-09,236000000.0,112.0,25
3.0,21.937915802,24.64,0.036,7.47e-09,236000000.0,112.0,25
4.0,21.9248685837,25.52,0.036,7.47e-09,236000000.0,112.0,25
5.0,21.9118213654,26.4,0.036,7.47e-09,236000000.0,112.0,25
6.0,21.904062748,27.28,0.036,7.47e-09,236000000.0,112.0,25
7.0,21.8963041306,28.16,0.036,7.47e-09,236000000.0,112.0,25
8.0,21.8885455132,29.04,0.036,7.47e-09,236000000.0,112.0,25
9.0,21.8807868958,29.92,0.036,7.47e-09,236000000.0,112.0,25
10.0,21.8822729588,30.8,0.036,7.47e-09,236000000.0,112.0,25
11.0,21.8837590218,31.68,0.036,7.47e-09,236000000.0,112.0,25
12.0,21.8852450848,32.56,0.036,7.47e-09,236000000.0,112.0,25
13.0,21.8867311478,33.44,0.036,7.47e-09,236000000.0,112.0,25
14.0,21.8882172108,34.32,0.036,7.47e-09,236000000.0,112.0,25
15.0,21.8897032738,35.2,0.036,7.47e-09,236000000.0,112.0,25
16.0,21.8911893368,36.08,0.036,7.47e-09,236000000.0,112.0,25
17.0,21.8926753998,36.96,0.036,7.47e-09,236000000.0,112.0,25
18.0,21.90537681581,37.84,0.036,7.47e-09,236000000.0,112.0,25
19.0,21.91807823182,38.72,0.036,7.47e-09,236000000.0,112.0,25
20.0,21.93077964783,39.6,0.036,7.47e-09,236000000.0,112.0,25
21.0,21.94348106384,40.48,0.036,7.47e-09,236000000.0,112.0,25
22.0,21.95618247985,41.36,0.036,7.47e-09,236000000.0,112.0,25
23.0,21.96888389586,42.24,0.036,7.47e-09,236000000.0,112.0,25
24.0,21.98158531187,43.12,0.036,7.47e-09,236000000.0,112.0,25
25.0,21.99428672788,44.0,0.036,7.47e-09,236000000.0,112.0,25
26.0,22.00698814389,44.88,0.036,7.47e-09,236000000.0,112.0,25
27.0,22.0196895599,45.76,0.036,7.47e-09,236000000.0,112.0,25
28.0,22.04351367947,46.64,0.036,7.47e-09,236000000.0,112.0,25
29.0,22.06733779904,47.52,0.036,7.47e-09,236000000.0,112.0,25
30.0,22.09116191861,48.4,0.036,7.47e-09,236000000.0,112.0,25
31.0,22.11498603818,49.28,0.036,7.47e-09,236000000.0,112.0,25
32.0,22.13881015775,50.16,0.036,7.47e-09,236000000.0,112.0,25
33.0,22.16263427732,51.04,0.036,7.47e-09,236000000.0,112.0,25
34.0,22.18645839689,51.92,0.036,7.47e-09,236000000.0,112.0,25
35.0,22.21028251646,52.8,0.036,7.47e-09,236000000.0,112.0,25
36.0,22.23410663603,53.68,0.036,7.47e-09,236000000.0,112.0,25
37.0,22.2579307556,54.56,0.036,7.47e-09,236000000.0,112.0,25
38.0,22.29280929564,55.44,0.036,7.47e-09,236000000.0,112.0,25
39.0,22.32768783568,56.32,0.036,7.47e-09,236000000.0,112.0,25
40.0,22.36256637572,57.2,0.036,7.47e-09,236000000.0,112.0,25
41.0,22.39744491576,58.08,0.036,7.47e-09,236000000.0,112.0,25
42.0,22.4323234558,58.96,0.036,7.47e-09,236000000.0,112.0,25
43.0,22.46720199584,59.84,0.036,7.47e-09,236000000.0,112.0,25
44.0,22.50208053588,60.72,0.036,7.47e-09,236000000.0,112.0,25
45.0,22.53695907592,61.6,0.036,7.47e-09,236000000.0,112.0,25
46.0,22.57183761596,62.48,0.036,7.47e-09,236000000.0,112.0,25
47.0,22.606716156,63.36,0.036,7.47e-09,236000000.0,112.0,25
48.0,22.64329700469,64.24,0.036,7.47e-09,236000000.0,112.0,25
49.0,22.67987785338,65.12,0.036,7.47e-09,236000000.0,112.0,25
50.0,22.71645870207,66.0,0.036,7.47e-09,236000000.0,112.0,25
51.0,22.75303955076,62.94,0.036,7.47e-09,236000000.0,112.0,25
52.0,22.78962039945,62.88,0.036,7.47e-09,236000000.0,112.0,25
53.0,22.82620124814,62.82,0.036,7.47e-09,236000000.0,112.0,25
54.0,22.86278209683,62.76,0.036,7.47e-09,236000000.0,112.0,25
55.0,22.89936294552,62.7,0.036,7.47e-09,236000000.0,112.0,25
56.0,22.93594379421,62.64,0.036,7.47e-09,236000000.0,112.0,25
57.0,22.9725246429,62.58,0.036,7.47e-09,236000000.0,112.0,25
58.0,23.00745201107,62.52,0.036,7.47e-09,236000000.0,112.0,25
59.0,23.04237937924,62.46,0.036,7.47e-09,236000000.0,112.0,25
60.0,23.07730674741,62.4,0.036,7.47e-09,236000000.0,112.0,25
61.0,23.11223411558,62.34,0.036,7.47e-09,236000000.0,112.0,25
62.0,23.14716148375,62.28,0.036,7.47e-09,236000000.0,112.0,25
63.0,23.18208885192,62.22,0.036,7.47e-09,236000000.0,112.0,25
64.0,23.21701622009,62.16,0.036,7.47e-09,236000000.0,112.0,25
65.0,23.25194358826,62.1,0.036,7.47e-09,236000000.0,112.0,25
66.0,23.28687095643,62.04,0.036,7.47e-09,236000000.0,112.0,25
67.0,23.3217983246,61.98,0.036,7.47e-09,236000000.0,112.0,25
68.0,23.35541152955,61.92,0.036,7.47e-09,236000000.0,112.0,25
69.0,23.3890247345,61.86,0.036,7.47e-09,236000000.0,112.0,25
70.0,23.42263793945,61.8,0.036,7.47e-09,236000000.0,112.0,25
71.0,23.4562511444,61.74,0.036,7.47e-09,236000000.0,112.0,25
72.0,23.48986434935,61.68,0.036,7.47e-09,236000000.0,112.0,25
73.0,23.5234775543,61.62,0.036,7.47e-09,236000000.0,112.0,25
74.0,23.55709075925,61.56,0.036,7.47e-09,236000000.0,112.0,25
75.0,23.5907039642,61.5,0.036,7.47e-09,236000000.0,112.0,25
76.0,23.62431716915,61.44,0.036,7.47e-09,236000000.0,112.0,25
77.0,23.6579303741,61.38,0.036,7.47e-09,236000000.0,112.0,25
78.0,23.69025878902,61.32,0.036,7.47e-09,236000000.0,112.0,25
79.0,23.72258720394,61.26,0.036,7.47e-09,236000000.0,112.0,25
80.0,23.75491561886,61.2,0.036,7.47e-09,236000000.0,112.0,25
81.0,23.78724403378,61.14,0.036,7.47e-09,236000000.0,112.0,25
82.0,23.8195724487,61.08,0.036,7.47e-09,236000000.0,112.0,25
83.0,23.85190086362,61.02,0.036,7.47e-09,236000000.0,112.0,25
84.0,23.88422927854,60.96,0.036,7.47e-09,236000000.0,112.0,25
85.0,23.91655769346,60.9,0.036,7.47e-09,236000000.0,112.0,25
86.0,23.94888610838,60.84,0.036,7.47e-09,236000000.0,112.0,25
87.0,23.9812145233,60.78,0.036,7.47e-09,236000000.0,112.0,25
88.0,24.01225872038,60.72,0.036,7.47e-09,236000000.0,112.0,25
89.0,24.04330291746,60.66,0.036,7.47e-09,236000000.0,112.0,25
90.0,24.07434711454,60.6,0.036,7.47e-09,236000000.0,112.0,25
91.0,24.10539131162,60.54,0.036,7.47e-09,236000000.0,112.0,25
92.0,24.1364355087,60.48,0.036,7.47e-09,236000000.0,112.0,25
93.0,24.16747970578,60.42,0.036,7.47e-09,236000000.0,112.0,25
94.0,24.19852390286,60.36,0.036,7.47e-09,236000000.0,112.0,25
95.0,24.22956809994,60.3,0.036,7.47e-09,236000000.0,112.0,25
96.0,24.26061229702,60.24,0.036,7.47e-09,236000000.0,112.0,25
97.0,24.2916564941,60.18,0.036,7.47e-09,236000000.0,112.0,25
98.0,24.3221914291,60.12,0.036,7.47e-09,236000000.0,112.0,25
99.0,24.3527263641,60.06,0.036,7.47e-09,236000000.0,112.0,25
100.0,24.3832612991,60.0,0.036,7.47e-09,236000000.0,112.0,25
101.0,24.4137962341,60,0.036,7.47e-09,236000000.0,112.0,25
102.0,24.4443311691,60,0.036,7.47e-09,236000000.0,112.0,25
103.0,24.4748661041,60,0.036,7.47e-09,236000000.0,112.0,25
104.0,24.5054010391,60,0.036,7.47e-09,236000000.0,112.0,25
105.0,24.5359359741,60,0.036,7.47e-09,236000000.0,112.0,25
106.0,24.5664709091,60,0.036,7.47e-09,236000000.0,112.0,25
107.0,24.5970058441,60,0.036,7.47e-09,236000000.0,112.0,25
108.0,24.62731037138,60,0.036,7.47e-09,236000000.0,112.0,25
109.0,24.65761489866,60,0.036,7.47e-09,236000000.0,112.0,25
110.0,24.68791942594,60,0.036,7.47e-09,236000000.0,112.0,25
111.0,24.71822395322,60,0.036,7.47e-09,236000000.0,112.0,25
112.0,24.7485284805,60,0.036,7.47e-09,236000000.0,112.0,25
113.0,24.77883300778,60,0.036,7.47e-09,236000000.0,112.0,25
114.0,24.80913753506,60,0.036,7.47e-09,236000000.0,112.0,25
115.0,24.83944206234,60,0.036,7.47e-09,236000000.0,112.0,25
116.0,24.86974658962,60,0.036,7.47e-09,236000000.0,112.0,25
117.0,24.9000511169,60,0.036,7.47e-09,236000000.0,112.0,25
118.0,24.93009757992,60,0.036,7.47e-09,236000000.0,112.0,25
119.0,24.96014404294,60,0.036,7.47e-09,236000000.0,112.0,25
120.0,24.99019050596,60,0.036,7.47e-09,236000000.0,112.0,25
121.0,25.02023696898,60,0.036,7.47e-09,236000000.0,112.0,25
122.0,25.050283432,60,0.036,7.47e-09,236000000.0,112.0,25
123.0,25.08032989502,60,0.036,7.47e-09,236000000.0,112.0,25
124.0,25.11037635804,60,0.036,7.47e-09,236000000.0,112.0,25
125.0,25.14042282106,60,0.036,7.47e-09,236000000.0,112.0,25
126.0,25.17046928408,60,0.036,7.47e-09,236000000.0,112.0,25
127.0,25.2005157471,60,0.036,7.47e-09,236000000.0,112.0,25
128.0,25.23030376437,60,0.036,7.47e-09,236000000.0,112.0,25
129.0,25.26009178164,60,0.036,7.47e-09,236000000.0,112.0,25
130.0,25.28987979891,60,0.036,7.47e-09,236000000.0,112.0,25
131.0,25.31966781618,60,0.036,7.47e-09,236000000.0,112.0,25
132.0,25.34945583345,60,0.036,7.47e-09,236000000.0,112.0,25
133.0,25.37924385072,60,0.036,7.47e-09,236000000.0,112.0,25
134.0,25.40903186799,60,0.036,7.47e-09,236000000.0,112.0,25
135.0,25.43881988526,60,0.036,7.47e-09,236000000.0,112.0,25
136.0,25.46860790253,60,0.036,7.47e-09,236000000.0,112.0,25
137.0,25.4983959198,60,0.036,7.47e-09,236000000.0,112.0,25
138.0,25.52792797089,60,0.036,7.47e-09,236000000.0,112.0,25
139.0,25.55746002198,60,0.036,7.47e-09,236000000.0,112.0,25
140.0,25.58699207307,60,0.036,7.47e-09,236000000.0,112.0,25
141.0,25.61652412416,60,0.036,7.47e-09,236000000.0,112.0,25
142.0,25.64605617525,60,0.036,7.47e-09,236000000.0,112.0,25
143.0,25.67558822634,60,0.036,7.47e-09,236000000.0,112.0,25
144.0,25.70512027743,60,0.036,7.47e-09,236000000.0,112.0,25
145.0,25.73465232852,60,0.036,7.47e-09,236000000.0,112.0,25
146.0,25.76418437961,60,0.036,7.47e-09,236000000.0,112.0,25
147.0,25.7937164307,60,0.036,7.47e-09,236000000.0,112.0,25
148.0,25.82299518588,60,0.036,7.47e-09,236000000.0,112.0,25
149.0,25.85227394106,60,0.036,7.47e-09,236000000.0,112.0,25
150.0,25.88155269624,60,0.036,7.47e-09,236000000.0,112.0,25
151.0,25.91083145142,60,0.036,7.47e-09,236000000.0,112.0,25
152.0,25.9401102066,60,0.036,7.47e-09,236000000.0,112.0,25
153.0,25.96938896178,60,0.036,7.47e-09,236000000.0,112.0,25
154.0,25.99866771696,60,0.036,7.47e-09,236000000.0,112.0,25
155.0,26.02794647214,60,0.036,7.47e-09,236000000.0,112.0,25
156.0,26.05722522732,60,0.036,7.47e-09,236000000.0,112.0,25
157.0,26.0865039825,60,0.036,7.47e-09,236000000.0,112.0,25
158.0,26.11553173061,60,0.036,7.47e-09,236000000.0,112.0,25
159.0,26.14455947872,60,0.036,7.47e-09,236000000.0,112.0,25
160.0,26.17358722683,60,0.036,7.47e-09,236000000.0,112.0,25
161.0,26.20261497494,60,0.036,7.47e-09,236000000.0,112.0,25
162.0,26.23164272305,60,0.036,7.47e-09,236000000.0,112.0,25
163.0,26.26067047116,60,0.036,7.47e-09,236000000.0,112.0,25
164.0,26.28969821927,60,0.036,7.47e-09,236000000.0,112.0,25
165.0,26.31872596738,60,0.036,7.47e-09,236000000.0,112.0,25
166.0,26.34775371549,60,0.036,7.47e-09,236000000.0,112.0,25
167.0,26.3767814636,60,0.036,7.47e-09,236000000.0,112.0,25
168.0,26.40556068418,60,0.036,7.47e-09,236000000.0,112.0,25
169.0,26.43433990476,60,0.036,7.47e-09,236000000.0,112.0,25
170.0,26.46311912534,60,0.036,7.47e-09,236000000.0,112.0,25
171.0,26.49189834592,60,0.036,7.47e-09,236000000.0,112.0,25
172.0,26.5206775665,60,0.036,7.47e-09,236000000.0,112.0,25
173.0,26.54945678708,60,0.036,7.47e-09,236000000.0,112.0,25
174.0,26.57823600766,60,0.036,7.47e-09,236000000.0,112.0,25
175.0,26.60701522824,60,0.036,7.47e-09,236000000.0,112.0,25
176.0,26.63579444882,60,0.036,7.47e-09,236000000.0,112.0,25
177.0,26.6645736694,60,0.036,7.47e-09,236000000.0,112.0,25
178.0,26.69310646054,60,0.036,7.47e-09,236000000.0,112.0,25
179.0,26.72163925168,60,0.036,7.47e-09,236000000.0,112.0,25
180.0,26.75017204282,60,0.036,7.47e-09,236000000.0,112.0,25
181.0,26.77870483396,60,0.036,7.47e-09,236000000.0,112.0,25
182.0,26.8072376251,60,0.036,7.47e-09,236000000.0,112.0,25
183.0,26.83577041624,60,0.036,7.47e-09,236000000.0,112.0,25
184.0,26.86430320738,60,0.036,7.47e-09,236000000.0,112.0,25
185.0,26.89283599852,60,0.036,7.47e-09,236000000.0,112.0,25
186.0,26.92136878966,60,0.036,7.47e-09,236000000.0,112.0,25
187.0,26.9499015808,60,0.036,7.47e-09,236000000.0,112.0,25
188.0,26.97819004058,60,0.036,7.47e-09,236000000.0,112.0,25
189.0,27.00647850036,60,0.036,7.47e-09,236000000.0,112.0,25
190.0,27.03476696014,60,0.036,7.47e-09,236000000.0,112.0,25
191.0,27.06305541992,60,0.036,7.47e-09,236000000.0,112.0,25
192.0,27.0913438797,60,0.036,7.47e-09,236000000.0,112.0,25
193.0,27.11963233948,60,0.036,7.47e-09,236000000.0,112.0,25
194.0,27.14792079926,60,0.036,7.47e-09,236000000.0,112.0,25
195.0,27.17620925904,60,0.036,7.47e-09,236000000.0,112.0,25
196.0,27.20449771882,60,0.036,7.47e-09,236000000.0,112.0,25
197.0,27.2327861786,60,0.036,7.47e-09,236000000.0,112.0,25
198.0,27.2608324051,60,0.036,7.47e-09,236000000.0,112.0,25
199.0,27.2888786316,60,0.036,7.47e-09,236000000.0,112.0,25
200.0,27.3169248581,60,0.036,7.47e-09,236000000.0,112.0,25
201.0,27.3449710846,60,0.036,7.47e-09,236000000.0,112.0,25
202.0,27.3730173111,60,0.036,7.47e-09,236000000.0,112.0,25
203.0,27.4010635376,60,0.036,7.47e-09,236000000.0,112.0,25
204.0,27.4291097641,60,0.036,7.47e-09,236000000.0,112.0,25
205.0,27.4571559906,60,0.036,7.47e-09,236000000.0,112.0,25
206.0,27.4852022171,60,0.036,7.47e-09,236000000.0,112.0,25
207.0,27.5132484436,60,0.036,7.47e-09,236000000.0,112.0,25
208.0,27.54105472564,60,0.036,7.47e-09,236000000.0,112.0,25
209.0,27.56886100768,60,0.036,7.47e-09,236000000.0,112.0,25
210.0,27.59666728972,60,0.036,7.47e-09,236000000.0,112.0,25
211.0,27.62447357176,60,0.036,7.47e-09,236000000.0,112.0,25
212.0,27.6522798538,60,0.036,7.47e-09,236000000.0,112.0,25
213.0,27.68008613584,60,0.036,7.47e-09,236000000.0,112.0,25
214.0,27.70789241788,60,0.036,7.47e-09,236000000.0,112.0,25
215.0,27.73569869992,60,0.036,7.47e-09,236000000.0,112.0,25
216.0,27.76350498196,60,0.036,7.47e-09,236000000.0,112.0,25
217.0,27.791311264,60,0.036,7.47e-09,236000000.0,112.0,25
218.0,27.81887969967,60,0.036,7.47e-09,236000000.0,112.0,25
219.0,27.84644813534,60,0.036,7.47e-09,236000000.0,112.0,25
220.0,27.87401657101,60,0.036,7.47e-09,236000000.0,112.0,25
221.0,27.90158500668,60,0.036,7.47e-09,236000000.0,112.0,25
222.0,27.92915344235,60,0.036,7.47e-09,236000000.0,112.0,25
223.0,27.95672187802,60,0.036,7.47e-09,236000000.0,112.0,25
224.0,27.98429031369,60,0.036,7.47e-09,236000000.0,112.0,25
225.0,28.01185874936,60,0.036,7.47e-09,236000000.0,112.0,25
226.0,28.03942718503,60,0.036,7.47e-09,236000000.0,112.0,25
227.0,28.0669956207,60,0.036,7.47e-09,236000000.0,112.0,25
228.0,28.09432792661,60,0.036,7.47e-09,236000000.0,112.0,25
229.0,28.12166023252,60,0.036,7.47e-09,236000000.0,112.0,25
230.0,28.14899253843,60,0.036,7.47e-09,236000000.0,112.0,25
231.0,28.17632484434,60,0.036,7.47e-09,236000000.0,112.0,25
232.0,28.20365715025,60,0.036,7.47e-09,236000000.0,112.0,25
233.0,28.23098945616,60,0.036,7.47e-09,236000000.0,112.0,25
234.0,28.25832176207,60,0.036,7.47e-09,236000000.0,112.0,25
235.0,28.28565406798,60,0.036,7.47e-09,236000000.0,112.0,25
236.0,28.31298637389,60,0.036,7.47e-09,236000000.0,112.0,25
237.0,28.3403186798,60,0.036,7.47e-09,236000000.0,112.0,25
238.0,28.36741695403,60,0.036,7.47e-09,236000000.0,112.0,25
239.0,28.39451522826,60,0.036,7.47e-09,236000000.0,112.0,25
240.0,28.42161350249,60,0.036,7.47e-09,236000000.0,112.0,25
241.0,28.44871177672,60,0.036,7.47e-09,236000000.0,112.0,25
242.0,28.47581005095,60,0.036,7.47e-09,236000000.0,112.0,25
243.0,28.50290832518,60,0.036,7.47e-09,236000000.0,112.0,25
244.0,28.53000659941,60,0.036,7.47e-09,236000000.0,112.0,25
245.0,28.55710487364,60,0.036,7.47e-09,236000000.0,112.0,25
246.0,28.58420314787,60,0.036,7.47e-09,236000000.0,112.0,25
247.0,28.6113014221,60,0.036,7.47e-09,236000000.0,112.0,25
248.0,28.63816795347,60,0.036,7.47e-09,236000000.0,112.0,25
249.0,28.66503448484,60,0.036,7.47e-09,236000000.0,112.0,25
250.0,28.69190101621,60,0.036,7.47e-09,236000000.0,112.0,25
251.0,28.71876754758,60,0.036,7.47e-09,236000000.0,112.0,25
252.0,28.74563407895,60,0.036,7.47e-09,236000000.0,112.0,25
253.0,28.77250061032,60,0.036,7.47e-09,236000000.0,112.0,25
254.0,28.79936714169,60,0.036,7.47e-09,236000000.0,112.0,25
255.0,28.82623367306,60,0.036,7.47e-09,236000000.0,112.0,25
256.0,28.85310020443,60,0.036,7.47e-09,236000000.0,112.0,25
257.0,28.8799667358,60,0.036,7.47e-09,236000000.0,112.0,25
258.0,28.9066030502,60,0.036,7.47e-09,236000000.0,112.0,25
259.0,28.9332393646,60,0.036,7.47e-09,236000000.0,112.0,25
260.0,28.959875679,60,0.036,7.47e-09,236000000.0,112.0,25
261.0,28.9865119934,60,0.036,7.47e-09,236000000.0,112.0,25
262.0,29.0131483078,60,0.036,7.47e-09,236000000.0,112.0,25
263.0,29.0397846222,60,0.036,7.47e-09,236000000.0,112.0,25
264.0,29.0664209366,60,0.036,7.47e-09,236000000.0,112.0,25
265.0,29.093057251,60,0.036,7.47e-09,236000000.0,112.0,25
266.0,29.1196935654,60,0.036,7.47e-09,236000000.0,112.0,25
267.0,29.1463298798,60,0.036,7.47e-09,236000000.0,112.0,25
268.0,29.17273845676,60,0.036,7.47e-09,236000000.0,112.0,25
269.0,29.19914703372,60,0.036,7.47e-09,236000000.0,112.0,25
270.0,29.22555561068,60,0.036,7.47e-09,236000000.0,112.0,25
271.0,29.25196418764,60,0.036,7.47e-09,236000000.0,112.0,25
272.0,29.2783727646,60,0.036,7.47e-09,236000000.0,112.0,25
273.0,29.30478134156,60,0.036,7.47e-09,236000000.0,112.0,25
274.0,29.33118991852,60,0.036,7.47e-09,236000000.0,112.0,25
275.0,29.35759849548,60,0.036,7.47e-09,236000000.0,112.0,25
276.0,29.38400707244,60,0.036,7.47e-09,236000000.0,112.0,25
277.0,29.4104156494,60,0.036,7.47e-09,236000000.0,112.0,25
278.0,29.43659801482,60,0.036,7.47e-09,236000000.0,112.0,25
279.0,29.46278038024,60,0.036,7.47e-09,236000000.0,112.0,25
280.0,29.48896274566,60,0.036,7.47e-09,236000000.0,112.0,25
281.0,29.51514511108,60,0.036,7.47e-09,236000000.0,112.0,25
282.0,29.5413274765,60,0.036,7.47e-09,236000000.0,112.0,25
283.0,29.56750984192,60,0.036,7.47e-09,236000000.0,112.0,25
284.0,29.59369220734,60,0.036,7.47e-09,236000000.0,112.0,25
285.0,29.61987457276,60,0.036,7.47e-09,236000000.0,112.0,25
286.0,29.64605693818,60,0.036,7.47e-09,236000000.0,112.0,25
287.0,29.6722393036,60,0.036,7.47e-09,236000000.0,112.0,25
288.0,29.69819774629,60,0.036,7.47e-09,236000000.0,112.0,25
289.0,29.72415618898,60,0.036,7.47e-09,236000000.0,112.0,25
290.0,29.75011463167,60,0.036,7.47e-09,236000000.0,112.0,25
291.0,29.77607307436,60,0.036,7.47e-09,236000000.0,112.0,25
292.0,29.80203151705,60,0.036,7.47e-09,236000000.0,112.0,25
293.0,29.82798995974,60,0.036,7.47e-09,236000000.0,112.0,25
294.0,29.85394840243,60,0.036,7.47e-09,236000000.0,112.0,25
295.0,29.87990684512,60,0.036,7.47e-09,236000000.0,112.0,25
296.0,29.90586528781,60,0.036,7.47e-09,236000000.0,112.0,25
297.0,29.9318237305,60,0.036,7.47e-09,236000000.0,112.0,25
298.0,29.95755977633,60,0.036,7.47e-09,236000000.0,112.0,25
299.0,29.98329582216,60,0.036,7.47e-09,236000000.0,112.0,25
300.0,30.00903186799,60,0.036,7.47e-09,236000000.0,112.0,25
301.0,30.03476791382,60,0.036,7.47e-09,236000000.0,112.0,25
302.0,30.06050395965,60,0.036,7.47e-09,236000000.0,112.0,25
303.0,30.08624000548,60,0.036,7.47e-09,236000000.0,112.0,25
304.0,30.11197605131,60,0.036,7.47e-09,236000000.0,112.0,25
305.0,30.13771209714,60,0.036,7.47e-09,236000000.0,112.0,25
306.0,30.16344814297,60,0.036,7.47e-09,236000000.0,112.0,25
307.0,30.1891841888,60,0.036,7.47e-09,236000000.0,112.0,25
308.0,30.21470012661,60,0.036,7.47e-09,236000000.0,112.0,25
309.0,30.24021606442,60,0.036,7.47e-09,236000000.0,112.0,25
310.0,30.26573200223,60,0.036,7.47e-09,236000000.0,112.0,25
311.0,30.29124794004,60,0.036,7.47e-09,236000000.0,112.0,25
312.0,30.31676387785,60,0.036,7.47e-09,236000000.0,112.0,25
313.0,30.34227981566,60,0.036,7.47e-09,236000000.0,112.0,25
314.0,30.36779575347,60,0.036,7.47e-09,236000000.0,112.0,25
315.0,30.39331169128,60,0.036,7.47e-09,236000000.0,112.0,25
316.0,30.41882762909,60,0.036,7.47e-09,236000000.0,112.0,25
317.0,30.4443435669,60,0.036,7.47e-09,236000000.0,112.0,25
318.0,30.46964111329,60,0.036,7.47e-09,236000000.0,112.0,25
319.0,30.49493865968,60,0.036,7.47e-09,236000000.0,112.0,25
320.0,30.52023620607,60,0.036,7.47e-09,236000000.0,112.0,25
321.0,30.54553375246,60,0.036,7.47e-09,236000000.0,112.0,25
322.0,30.57083129885,60,0.036,7.47e-09,236000000.0,112.0,25
323.0,30.59612884524,60,0.036,7.47e-09,236000000.0,112.0,25
324.0,30.62142639163,60,0.036,7.47e-09,236000000.0,112.0,25
325.0,30.64672393802,60,0.036,7.47e-09,236000000.0,112.0,25
326.0,30.67202148441,60,0.036,7.47e-09,236000000.0,112.0,25
327.0,30.6973190308,60,0.036,7.47e-09,236000000.0,112.0,25
328.0,30.72239990238,60,0.036,7.47e-09,236000000.0,112.0,25
329.0,30.74748077396,60,0.036,7.47e-09,236000000.0,112.0,25
330.0,30.77256164554,60,0.036,7.47e-09,236000000.0,112.0,25
