time,T_int,T_ext_1,Film_Coef,Density,Specific_Heat,Thermal_Conductivity,Radius
1.0,21.985710144,22.88,0.036,7.37e-09,586000000.0,152.0,25
2.0,21.9743976593,23.76,0.036,7.37e-09,586000000.0,152.0,25
3.0,21.9649581909,24.64,0.036,7.37e-09,586000000.0,152.0,25
4.0,21.9577541351,25.52,0.036,7.37e-09,586000000.0,152.0,25
5.0,21.9505500793,26.4,0.036,7.37e-09,586000000.0,152.0,25
6.0,21.946398258175,27.28,0.036,7.37e-09,586000000.0,152.0,25
7.0,21.94224643705,28.16,0.036,7.37e-09,586000000.0,152.0,25
8.0,21.938094615925,29.04,0.036,7.37e-09,586000000.0,152.0,25
9.0,21.9339427948,29.92,0.036,7.37e-09,586000000.0,152.0,25
10.0,21.9348931312625,30.8,0.036,7.37e-09,586000000.0,152.0,25
11.0,21.935843467725,31.68,0.036,7.37e-09,586000000.0,152.0,25
12.0,21.9367938041875,32.56,0.036,7.37e-09,586000000.0,152.0,25
13.0,21.93774414065,33.44,0.036,7.37e-09,586000000.0,152.0,25
14.0,21.9386944771125,34.32,0.036,7.37e-09,586000000.0,152.0,25
15.0,21.939644813575,35.2,0.036,7.37e-09,586000000.0,152.0,25
16.0,21.9405951500375,36.08,0.036,7.37e-09,586000000.0,152.0,25
17.0,21.9415454865,36.96,0.036,7.37e-09,586000000.0,152.0,25
18.0,21.94857940678,37.84,0.036,7.37e-09,586000000.0,152.0,25
19.0,21.95561332706,38.72,0.036,7.37e-09,586000000.0,152.0,25
20.0,21.96264724734,39.6,0.036,7.37e-09,586000000.0,152.0,25
21.0,21.96968116762,40.48,0.036,7.37e-09,586000000.0,152.0,25
22.0,21.9767150879,41.36,0.036,7.37e-09,586000000.0,152.0,25
23.0,21.98374900818,42.24,0.036,7.37e-09,586000000.0,152.0,25
24.0,21.99078292846,43.12,0.036,7.37e-09,586000000.0,152.0,25
25.0,21.99781684874,44.0,0.036,7.37e-09,586000000.0,152.0,25
26.0,22.00485076902,44.88,0.036,7.37e-09,586000000.0,152.0,25
27.0,22.0118846893,45.76,0.036,7.37e-09,586000000.0,152.0,25
28.0,22.02493934629,46.64,0.036,7.37e-09,586000000.0,152.0,25
29.0,22.03799400328,47.52,0.036,7.37e-09,586000000.0,152.0,25
30.0,22.05104866027,48.4,0.036,7.37e-09,586000000.0,152.0,25
31.0,22.06410331726,49.28,0.036,7.37e-09,586000000.0,152.0,25
32.0,22.07715797425,50.16,0.036,7.37e-09,586000000.0,152.0,25
33.0,22.09021263124,51.04,0.036,7.37e-09,586000000.0,152.0,25
34.0,22.10326728823,51.92,0.036,7.37e-09,586000000.0,152.0,25
35.0,22.11632194522,52.8,0.036,7.37e-09,586000000.0,152.0,25
36.0,22.12937660221,53.68,0.036,7.37e-09,586000000.0,152.0,25
37.0,22.1424312592,54.56,0.036,7.37e-09,586000000.0,152.0,25
38.0,22.16148700718,55.44,0.036,7.37e-09,586000000.0,152.0,25
39.0,22.18054275516,56.32,0.036,7.37e-09,586000000.0,152.0,25
40.0,22.19959850314,57.2,0.036,7.37e-09,586000000.0,152.0,25
41.0,22.21865425112,58.08,0.036,7.37e-09,586000000.0,152.0,25
42.0,22.2377099991,58.96,0.036,7.37e-09,586000000.0,152.0,25
43.0,22.25676574708,59.84,0.036,7.37e-09,586000000.0,152.0,25
44.0,22.27582149506,60.72,0.036,7.37e-09,586000000.0,152.0,25
45.0,22.29487724304,61.6,0.036,7.37e-09,586000000.0,152.0,25
46.0,22.31393299102,62.48,0.036,7.37e-09,586000000.0,152.0,25
47.0,22.332988739,63.36,0.036,7.37e-09,586000000.0,152.0,25
48.0,22.35290699004,64.24,0.036,7.37e-09,586000000.0,152.0,25
49.0,22.37282524108,65.12,0.036,7.37e-09,586000000.0,152.0,25
50.0,22.39274349212,66.0,0.036,7.37e-09,586000000.0,152.0,25
51.0,22.41266174316,62.94,0.036,7.37e-09,586000000.0,152.0,25
52.0,22.4325799942,62.88,0.036,7.37e-09,586000000.0,152.0,25
53.0,22.45249824524,62.82,0.036,7.37e-09,586000000.0,152.0,25
54.0,22.47241649628,62.76,0.036,7.37e-09,586000000.0,152.0,25
55.0,22.49233474732,62.7,0.036,7.37e-09,586000000.0,152.0,25
56.0,22.51225299836,62.64,0.036,7.37e-09,586000000.0,152.0,25
57.0,22.5321712494,62.58,0.036,7.37e-09,586000000.0,152.0,25
58.0,22.5511909485,62.52,0.036,7.37e-09,586000000.0,152.0,25
59.0,22.5702106476,62.46,0.036,7.37e-09,586000000.0,152.0,25
60.0,22.5892303467,62.4,0.036,7.37e-09,586000000.0,152.0,25
61.0,22.6082500458,62.34,0.036,7.37e-09,586000000.0,152.0,25
62.0,22.6272697449,62.28,0.036,7.37e-09,586000000.0,152.0,25
63.0,22.646289444,62.22,0.036,7.37e-09,586000000.0,152.0,25
64.0,22.6653091431,62.16,0.036,7.37e-09,586000000.0,152.0,25
65.0,22.6843288422,62.1,0.036,7.37e-09,586000000.0,152.0,25
66.0,22.7033485413,62.04,0.036,7.37e-09,586000000.0,152.0,25
67.0,22.7223682404,61.98,0.036,7.37e-09,586000000.0,152.0,25
68.0,22.74073829655,61.92,0.036,7.37e-09,586000000.0,152.0,25
69.0,22.7591083527,61.86,0.036,7.37e-09,586000000.0,152.0,25
70.0,22.77747840885,61.8,0.036,7.37e-09,586000000.0,152.0,25
71.0,22.795848465,61.74,0.036,7.37e-09,586000000.0,152.0,25
72.0,22.81421852115,61.68,0.036,7.37e-09,586000000.0,152.0,25
73.0,22.8325885773,61.62,0.036,7.37e-09,586000000.0,152.0,25
74.0,22.85095863345,61.56,0.036,7.37e-09,586000000.0,152.0,25
75.0,22.8693286896,61.5,0.036,7.37e-09,586000000.0,152.0,25
76.0,22.88769874575,61.44,0.036,7.37e-09,586000000.0,152.0,25
77.0,22.9060688019,61.38,0.036,7.37e-09,586000000.0,152.0,25
78.0,22.92382011415,61.32,0.036,7.37e-09,586000000.0,152.0,25
79.0,22.9415714264,61.26,0.036,7.37e-09,586000000.0,152.0,25
80.0,22.95932273865,61.2,0.036,7.37e-09,586000000.0,152.0,25
81.0,22.9770740509,61.14,0.036,7.37e-09,586000000.0,152.0,25
82.0,22.99482536315,61.08,0.036,7.37e-09,586000000.0,152.0,25
83.0,23.0125766754,61.02,0.036,7.37e-09,586000000.0,152.0,25
84.0,23.03032798765,60.96,0.036,7.37e-09,586000000.0,152.0,25
85.0,23.0480792999,60.9,0.036,7.37e-09,586000000.0,152.0,25
86.0,23.06583061215,60.84,0.036,7.37e-09,586000000.0,152.0,25
87.0,23.0835819244,60.78,0.036,7.37e-09,586000000.0,152.0,25
88.0,23.10071449276,60.72,0.036,7.37e-09,586000000.0,152.0,25
89.0,23.11784706112,60.66,0.036,7.37e-09,586000000.0,152.0,25
90.0,23.13497962948,60.6,0.036,7.37e-09,586000000.0,152.0,25
91.0,23.15211219784,60.54,0.036,7.37e-09,586000000.0,152.0,25
92.0,23.1692447662,60.48,0.036,7.37e-09,586000000.0,152.0,25
93.0,23.18637733456,60.42,0.036,7.37e-09,586000000.0,152.0,25
94.0,23.20350990292,60.36,0.036,7.37e-09,586000000.0,152.0,25
95.0,23.22064247128,60.3,0.036,7.37e-09,586000000.0,152.0,25
96.0,23.23777503964,60.24,0.036,7.37e-09,586000000.0,152.0,25
97.0,23.254907608,60.18,0.036,7.37e-09,586000000.0,152.0,25
98.0,23.27184543607,60.12,0.036,7.37e-09,586000000.0,152.0,25
99.0,23.28878326414,60.06,0.036,7.37e-09,586000000.0,152.0,25
100.0,23.30572109221,60.0,0.036,7.37e-09,586000000.0,152.0,25
101.0,23.32265892028,60,0.036,7.37e-09,586000000.0,152.0,25
102.0,23.33959674835,60,0.036,7.37e-09,586000000.0,152.0,25
103.0,23.35653457642,60,0.036,7.37e-09,586000000.0,152.0,25
104.0,23.37347240449,60,0.036,7.37e-09,586000000.0,152.0,25
105.0,23.39041023256,60,0.036,7.37e-09,586000000.0,152.0,25
106.0,23.40734806063,60,0.036,7.37e-09,586000000.0,152.0,25
107.0,23.4242858887,60,0.036,7.37e-09,586000000.0,152.0,25
108.0,23.44117240908,60,0.036,7.37e-09,586000000.0,152.0,25
109.0,23.45805892946,60,0.036,7.37e-09,586000000.0,152.0,25
110.0,23.47494544984,60,0.036,7.37e-09,586000000.0,152.0,25
111.0,23.49183197022,60,0.036,7.37e-09,586000000.0,152.0,25
112.0,23.5087184906,60,0.036,7.37e-09,586000000.0,152.0,25
113.0,23.52560501098,60,0.036,7.37e-09,586000000.0,152.0,25
114.0,23.54249153136,60,0.036,7.37e-09,586000000.0,152.0,25
115.0,23.55937805174,60,0.036,7.37e-09,586000000.0,152.0,25
116.0,23.57626457212,60,0.036,7.37e-09,586000000.0,152.0,25
117.0,23.5931510925,60,0.036,7.37e-09,586000000.0,152.0,25
118.0,23.60996398923,60,0.036,7.37e-09,586000000.0,152.0,25
119.0,23.62677688596,60,0.036,7.37e-09,586000000.0,152.0,25
120.0,23.64358978269,60,0.036,7.37e-09,586000000.0,152.0,25
121.0,23.66040267942,60,0.036,7.37e-09,586000000.0,152.0,25
122.0,23.67721557615,60,0.036,7.37e-09,586000000.0,152.0,25
123.0,23.69402847288,60,0.036,7.37e-09,586000000.0,152.0,25
124.0,23.71084136961,60,0.036,7.37e-09,586000000.0,152.0,25
125.0,23.72765426634,60,0.036,7.37e-09,586000000.0,152.0,25
126.0,23.74446716307,60,0.036,7.37e-09,586000000.0,152.0,25
127.0,23.7612800598,60,0.036,7.37e-09,586000000.0,152.0,25
128.0,23.77801570891,60,0.036,7.37e-09,586000000.0,152.0,25
129.0,23.79475135802,60,0.036,7.37e-09,586000000.0,152.0,25
130.0,23.81148700713,60,0.036,7.37e-09,586000000.0,152.0,25
131.0,23.82822265624,60,0.036,7.37e-09,586000000.0,152.0,25
132.0,23.84495830535,60,0.036,7.37e-09,586000000.0,152.0,25
133.0,23.86169395446,60,0.036,7.37e-09,586000000.0,152.0,25
134.0,23.87842960357,60,0.036,7.37e-09,586000000.0,152.0,25
135.0,23.89516525268,60,0.036,7.37e-09,586000000.0,152.0,25
136.0,23.91190090179,60,0.036,7.37e-09,586000000.0,152.0,25
137.0,23.9286365509,60,0.036,7.37e-09,586000000.0,152.0,25
138.0,23.94529457092,60,0.036,7.37e-09,586000000.0,152.0,25
139.0,23.96195259094,60,0.036,7.37e-09,586000000.0,152.0,25
140.0,23.97861061096,60,0.036,7.37e-09,586000000.0,152.0,25
141.0,23.99526863098,60,0.036,7.37e-09,586000000.0,152.0,25
142.0,24.011926651,60,0.036,7.37e-09,586000000.0,152.0,25
143.0,24.02858467102,60,0.036,7.37e-09,586000000.0,152.0,25
144.0,24.04524269104,60,0.036,7.37e-09,586000000.0,152.0,25
145.0,24.06190071106,60,0.036,7.37e-09,586000000.0,152.0,25
146.0,24.07855873108,60,0.036,7.37e-09,586000000.0,152.0,25
147.0,24.0952167511,60,0.036,7.37e-09,586000000.0,152.0,25
148.0,24.11179771423,60,0.036,7.37e-09,586000000.0,152.0,25
149.0,24.12837867736,60,0.036,7.37e-09,586000000.0,152.0,25
150.0,24.14495964049,60,0.036,7.37e-09,586000000.0,152.0,25
151.0,24.16154060362,60,0.036,7.37e-09,586000000.0,152.0,25
152.0,24.17812156675,60,0.036,7.37e-09,586000000.0,152.0,25
153.0,24.19470252988,60,0.036,7.37e-09,586000000.0,152.0,25
154.0,24.21128349301,60,0.036,7.37e-09,586000000.0,152.0,25
155.0,24.22786445614,60,0.036,7.37e-09,586000000.0,152.0,25
156.0,24.24444541927,60,0.036,7.37e-09,586000000.0,152.0,25
157.0,24.2610263824,60,0.036,7.37e-09,586000000.0,152.0,25
158.0,24.27753047939,60,0.036,7.37e-09,586000000.0,152.0,25
159.0,24.29403457638,60,0.036,7.37e-09,586000000.0,152.0,25
160.0,24.31053867337,60,0.036,7.37e-09,586000000.0,152.0,25
161.0,24.32704277036,60,0.036,7.37e-09,586000000.0,152.0,25
162.0,24.34354686735,60,0.036,7.37e-09,586000000.0,152.0,25
163.0,24.36005096434,60,0.036,7.37e-09,586000000.0,152.0,25
164.0,24.37655506133,60,0.036,7.37e-09,586000000.0,152.0,25
165.0,24.39305915832,60,0.036,7.37e-09,586000000.0,152.0,25
166.0,24.40956325531,60,0.036,7.37e-09,586000000.0,152.0,25
167.0,24.4260673523,60,0.036,7.37e-09,586000000.0,152.0,25
168.0,24.44249515534,60,0.036,7.37e-09,586000000.0,152.0,25
169.0,24.45892295838,60,0.036,7.37e-09,586000000.0,152.0,25
170.0,24.47535076142,60,0.036,7.37e-09,586000000.0,152.0,25
171.0,24.49177856446,60,0.036,7.37e-09,586000000.0,152.0,25
172.0,24.5082063675,60,0.036,7.37e-09,586000000.0,152.0,25
173.0,24.52463417054,60,0.036,7.37e-09,586000000.0,152.0,25
174.0,24.54106197358,60,0.036,7.37e-09,586000000.0,152.0,25
175.0,24.55748977662,60,0.036,7.37e-09,586000000.0,152.0,25
176.0,24.57391757966,60,0.036,7.37e-09,586000000.0,152.0,25
177.0,24.5903453827,60,0.036,7.37e-09,586000000.0,152.0,25
178.0,24.60669727326,60,0.036,7.37e-09,586000000.0,152.0,25
179.0,24.62304916382,60,0.036,7.37e-09,586000000.0,152.0,25
180.0,24.63940105438,60,0.036,7.37e-09,586000000.0,152.0,25
181.0,24.65575294494,60,0.036,7.37e-09,586000000.0,152.0,25
182.0,24.6721048355,60,0.036,7.37e-09,586000000.0,152.0,25
183.0,24.68845672606,60,0.036,7.37e-09,586000000.0,152.0,25
184.0,24.70480861662,60,0.036,7.37e-09,586000000.0,152.0,25
185.0,24.72116050718,60,0.036,7.37e-09,586000000.0,152.0,25
186.0,24.73751239774,60,0.036,7.37e-09,586000000.0,152.0,25
187.0,24.7538642883,60,0.036,7.37e-09,586000000.0,152.0,25
188.0,24.77014064786,60,0.036,7.37e-09,586000000.0,152.0,25
189.0,24.78641700742,60,0.036,7.37e-09,586000000.0,152.0,25
190.0,24.80269336698,60,0.036,7.37e-09,586000000.0,152.0,25
191.0,24.81896972654,60,0.036,7.37e-09,586000000.0,152.0,25
192.0,24.8352460861,60,0.036,7.37e-09,586000000.0,152.0,25
193.0,24.85152244566,60,0.036,7.37e-09,586000000.0,152.0,25
194.0,24.86779880522,60,0.036,7.37e-09,586000000.0,152.0,25
195.0,24.88407516478,60,0.036,7.37e-09,586000000.0,152.0,25
196.0,24.90035152434,60,0.036,7.37e-09,586000000.0,152.0,25
197.0,24.9166278839,60,0.036,7.37e-09,586000000.0,152.0,25
198.0,24.93282909392,60,0.036,7.37e-09,586000000.0,152.0,25
199.0,24.94903030394,60,0.036,7.37e-09,586000000.0,152.0,25
200.0,24.96523151396,60,0.036,7.37e-09,586000000.0,152.0,25
201.0,24.98143272398,60,0.036,7.37e-09,586000000.0,152.0,25
202.0,24.997633934,60,0.036,7.37e-09,586000000.0,152.0,25
203.0,25.01383514402,60,0.036,7.37e-09,586000000.0,152.0,25
204.0,25.03003635404,60,0.036,7.37e-09,586000000.0,152.0,25
205.0,25.04623756406,60,0.036,7.37e-09,586000000.0,152.0,25
206.0,25.06243877408,60,0.036,7.37e-09,586000000.0,152.0,25
207.0,25.0786399841,60,0.036,7.37e-09,586000000.0,152.0,25
208.0,25.09476642606,60,0.036,7.37e-09,586000000.0,152.0,25
209.0,25.11089286802,60,0.036,7.37e-09,586000000.0,152.0,25
210.0,25.12701930998,60,0.036,7.37e-09,586000000.0,152.0,25
211.0,25.14314575194,60,0.036,7.37e-09,586000000.0,152.0,25
212.0,25.1592721939,60,0.036,7.37e-09,586000000.0,152.0,25
213.0,25.17539863586,60,0.036,7.37e-09,586000000.0,152.0,25
214.0,25.19152507782,60,0.036,7.37e-09,586000000.0,152.0,25
215.0,25.20765151978,60,0.036,7.37e-09,586000000.0,152.0,25
216.0,25.22377796174,60,0.036,7.37e-09,586000000.0,152.0,25
217.0,25.2399044037,60,0.036,7.37e-09,586000000.0,152.0,25
218.0,25.25595626832,60,0.036,7.37e-09,586000000.0,152.0,25
219.0,25.27200813294,60,0.036,7.37e-09,586000000.0,152.0,25
220.0,25.28805999756,60,0.036,7.37e-09,586000000.0,152.0,25
221.0,25.30411186218,60,0.036,7.37e-09,586000000.0,152.0,25
222.0,25.3201637268,60,0.036,7.37e-09,586000000.0,152.0,25
223.0,25.33621559142,60,0.036,7.37e-09,586000000.0,152.0,25
224.0,25.35226745604,60,0.036,7.37e-09,586000000.0,152.0,25
225.0,25.36831932066,60,0.036,7.37e-09,586000000.0,152.0,25
226.0,25.38437118528,60,0.036,7.37e-09,586000000.0,152.0,25
227.0,25.4004230499,60,0.036,7.37e-09,586000000.0,152.0,25
228.0,25.41640071866,60,0.036,7.37e-09,586000000.0,152.0,25
229.0,25.43237838742,60,0.036,7.37e-09,586000000.0,152.0,25
230.0,25.44835605618,60,0.036,7.37e-09,586000000.0,152.0,25
231.0,25.46433372494,60,0.036,7.37e-09,586000000.0,152.0,25
232.0,25.4803113937,60,0.036,7.37e-09,586000000.0,152.0,25
233.0,25.49628906246,60,0.036,7.37e-09,586000000.0,152.0,25
234.0,25.51226673122,60,0.036,7.37e-09,586000000.0,152.0,25
235.0,25.52824439998,60,0.036,7.37e-09,586000000.0,152.0,25
236.0,25.54422206874,60,0.036,7.37e-09,586000000.0,152.0,25
237.0,25.5601997375,60,0.036,7.37e-09,586000000.0,152.0,25
238.0,25.57610378261,60,0.036,7.37e-09,586000000.0,152.0,25
239.0,25.59200782772,60,0.036,7.37e-09,586000000.0,152.0,25
240.0,25.60791187283,60,0.036,7.37e-09,586000000.0,152.0,25
241.0,25.62381591794,60,0.036,7.37e-09,586000000.0,152.0,25
242.0,25.63971996305,60,0.036,7.37e-09,586000000.0,152.0,25
243.0,25.65562400816,60,0.036,7.37e-09,586000000.0,152.0,25
244.0,25.67152805327,60,0.036,7.37e-09,586000000.0,152.0,25
245.0,25.68743209838,60,0.036,7.37e-09,586000000.0,152.0,25
246.0,25.70333614349,60,0.036,7.37e-09,586000000.0,152.0,25
247.0,25.7192401886,60,0.036,7.37e-09,586000000.0,152.0,25
248.0,25.73507061005,60,0.036,7.37e-09,586000000.0,152.0,25
249.0,25.7509010315,60,0.036,7.37e-09,586000000.0,152.0,25
250.0,25.76673145295,60,0.036,7.37e-09,586000000.0,152.0,25
251.0,25.7825618744,60,0.036,7.37e-09,586000000.0,152.0,25
252.0,25.79839229585,60,0.036,7.37e-09,586000000.0,152.0,25
253.0,25.8142227173,60,0.036,7.37e-09,586000000.0,152.0,25
254.0,25.83005313875,60,0.036,7.37e-09,586000000.0,152.0,25
255.0,25.8458835602,60,0.036,7.37e-09,586000000.0,152.0,25
256.0,25.86171398165,60,0.036,7.37e-09,586000000.0,152.0,25
257.0,25.8775444031,60,0.036,7.37e-09,586000000.0,152.0,25
258.0,25.89330177309,60,0.036,7.37e-09,586000000.0,152.0,25
259.0,25.90905914308,60,0.036,7.37e-09,586000000.0,152.0,25
260.0,25.92481651307,60,0.036,7.37e-09,586000000.0,152.0,25
261.0,25.94057388306,60,0.036,7.37e-09,586000000.0,152.0,25
262.0,25.95633125305,60,0.036,7.37e-09,586000000.0,152.0,25
263.0,25.97208862304,60,0.036,7.37e-09,586000000.0,152.0,25
264.0,25.98784599303,60,0.036,7.37e-09,586000000.0,152.0,25
265.0,26.00360336302,60,0.036,7.37e-09,586000000.0,152.0,25
266.0,26.01936073301,60,0.036,7.37e-09,586000000.0,152.0,25
267.0,26.035118103,60,0.036,7.37e-09,586000000.0,152.0,25
268.0,26.05080280301,60,0.036,7.37e-09,586000000.0,152.0,25
269.0,26.06648750302,60,0.036,7.37e-09,586000000.0,152.0,25
270.0,26.08217220303,60,0.036,7.37e-09,586000000.0,152.0,25
271.0,26.09785690304,60,0.036,7.37e-09,586000000.0,152.0,25
272.0,26.11354160305,60,0.036,7.37e-09,586000000.0,152.0,25
273.0,26.12922630306,60,0.036,7.37e-09,586000000.0,152.0,25
274.0,26.14491100307,60,0.036,7.37e-09,586000000.0,152.0,25
275.0,26.16059570308,60,0.036,7.37e-09,586000000.0,152.0,25
276.0,26.17628040309,60,0.036,7.37e-09,586000000.0,152.0,25
277.0,26.1919651031,60,0.036,7.37e-09,586000000.0,152.0,25
278.0,26.20757732387,60,0.036,7.37e-09,586000000.0,152.0,25
279.0,26.22318954464,60,0.036,7.37e-09,586000000.0,152.0,25
280.0,26.23880176541,60,0.036,7.37e-09,586000000.0,152.0,25
281.0,26.25441398618,60,0.036,7.37e-09,586000000.0,152.0,25
282.0,26.27002620695,60,0.036,7.37e-09,586000000.0,152.0,25
283.0,26.28563842772,60,0.036,7.37e-09,586000000.0,152.0,25
284.0,26.30125064849,60,0.036,7.37e-09,586000000.0,152.0,25
285.0,26.31686286926,60,0.036,7.37e-09,586000000.0,152.0,25
286.0,26.33247509003,60,0.036,7.37e-09,586000000.0,152.0,25
287.0,26.3480873108,60,0.036,7.37e-09,586000000.0,152.0,25
288.0,26.36362743378,60,0.036,7.37e-09,586000000.0,152.0,25
289.0,26.37916755676,60,0.036,7.37e-09,586000000.0,152.0,25
290.0,26.39470767974,60,0.036,7.37e-09,586000000.0,152.0,25
291.0,26.41024780272,60,0.036,7.37e-09,586000000.0,152.0,25
292.0,26.4257879257,60,0.036,7.37e-09,586000000.0,152.0,25
293.0,26.44132804868,60,0.036,7.37e-09,586000000.0,152.0,25
294.0,26.45686817166,60,0.036,7.37e-09,586000000.0,152.0,25
295.0,26.47240829464,60,0.036,7.37e-09,586000000.0,152.0,25
296.0,26.48794841762,60,0.036,7.37e-09,586000000.0,152.0,25
297.0,26.5034885406,60,0.036,7.37e-09,586000000.0,152.0,25
298.0,26.51895694728,60,0.036,7.37e-09,586000000.0,152.0,25
299.0,26.53442535396,60,0.036,7.37e-09,586000000.0,152.0,25
300.0,26.54989376064,60,0.036,7.37e-09,586000000.0,152.0,25
301.0,26.56536216732,60,0.036,7.37e-09,586000000.0,152.0,25
302.0,26.580830574,60,0.036,7.37e-09,586000000.0,152.0,25
303.0,26.59629898068,60,0.036,7.37e-09,586000000.0,152.0,25
304.0,26.61176738736,60,0.036,7.37e-09,586000000.0,152.0,25
305.0,26.62723579404,60,0.036,7.37e-09,586000000.0,152.0,25
306.0,26.64270420072,60,0.036,7.37e-09,586000000.0,152.0,25
307.0,26.6581726074,60,0.036,7.37e-09,586000000.0,152.0,25
308.0,26.67356948851,60,0.036,7.37e-09,586000000.0,152.0,25
309.0,26.68896636962,60,0.036,7.37e-09,586000000.0,152.0,25
310.0,26.70436325073,60,0.036,7.37e-09,586000000.0,152.0,25
311.0,26.71976013184,60,0.036,7.37e-09,586000000.0,152.0,25
312.0,26.73515701295,60,0.036,7.37e-09,586000000.0,152.0,25
313.0,26.75055389406,60,0.036,7.37e-09,586000000.0,152.0,25
314.0,26.76595077517,60,0.036,7.37e-09,586000000.0,152.0,25
315.0,26.78134765628,60,0.036,7.37e-09,586000000.0,152.0,25
316.0,26.79674453739,60,0.036,7.37e-09,586000000.0,152.0,25
317.0,26.8121414185,60,0.036,7.37e-09,586000000.0,152.0,25
318.0,26.8274671555,60,0.036,7.37e-09,586000000.0,152.0,25
319.0,26.8427928925,60,0.036,7.37e-09,586000000.0,152.0,25
320.0,26.8581186295,60,0.036,7.37e-09,586000000.0,152.0,25
321.0,26.8734443665,60,0.036,7.37e-09,586000000.0,152.0,25
322.0,26.8887701035,60,0.036,7.37e-09,586000000.0,152.0,25
323.0,26.9040958405,60,0.036,7.37e-09,586000000.0,152.0,25
324.0,26.9194215775,60,0.036,7.37e-09,586000000.0,152.0,25
325.0,26.9347473145,60,0.036,7.37e-09,586000000.0,152.0,25
326.0,26.9500730515,60,0.036,7.37e-09,586000000.0,152.0,25
327.0,26.9653987885,60,0.036,7.37e-09,586000000.0,152.0,25
328.0,26.9806539536,60,0.036,7.37e-09,586000000.0,152.0,25
329.0,26.9959091187,60,0.036,7.37e-09,586000000.0,152.0,25
330.0,27.0111642838,60,0.036,7.37e-09,586000000.0,152.0,25
