time,T_int,T_ext_1,Film_Coef,Density,Specific_Heat,Thermal_Conductivity,Radius
1.0,21.9838695526,22.88,0.036,7.47e-09,536000000.0,92.0,25
2.0,21.9708175659,23.76,0.036,7.47e-09,536000000.0,92.0,25
3.0,21.9599494934,24.64,0.036,7.47e-09,536000000.0,92.0,25
4.0,21.9518585205,25.52,0.036,7.47e-09,536000000.0,92.0,25
5.0,21.9437675476,26.4,0.036,7.47e-09,536000000.0,92.0,25
6.0,21.939348220825,27.28,0.036,7.47e-09,536000000.0,92.0,25
7.0,21.93492889405,28.16,0.036,7.47e-09,536000000.0,92.0,25
8.0,21.930509567275,29.04,0.036,7.47e-09,536000000.0,92.0,25
9.0,21.9260902405,29.92,0.036,7.47e-09,536000000.0,92.0,25
10.0,21.9274086952375,30.8,0.036,7.47e-09,536000000.0,92.0,25
11.0,21.928727149975,31.68,0.036,7.47e-09,536000000.0,92.0,25
12.0,21.9300456047125,32.56,0.036,7.47e-09,536000000.0,92.0,25
13.0,21.93136405945,33.44,0.036,7.47e-09,536000000.0,92.0,25
14.0,21.9326825141875,34.32,0.036,7.47e-09,536000000.0,92.0,25
15.0,21.934000968925,35.2,0.036,7.47e-09,536000000.0,92.0,25
16.0,21.9353194236625,36.08,0.036,7.47e-09,536000000.0,92.0,25
17.0,21.9366378784,36.96,0.036,7.47e-09,536000000.0,92.0,25
18.0,21.9445379257,37.84,0.036,7.47e-09,536000000.0,92.0,25
19.0,21.952437973,38.72,0.036,7.47e-09,536000000.0,92.0,25
20.0,21.9603380203,39.6,0.036,7.47e-09,536000000.0,92.0,25
21.0,21.9682380676,40.48,0.036,7.47e-09,536000000.0,92.0,25
22.0,21.9761381149,41.36,0.036,7.47e-09,536000000.0,92.0,25
23.0,21.9840381622,42.24,0.036,7.47e-09,536000000.0,92.0,25
24.0,21.9919382095,43.12,0.036,7.47e-09,536000000.0,92.0,25
25.0,21.9998382568,44.0,0.036,7.47e-09,536000000.0,92.0,25
26.0,22.0077383041,44.88,0.036,7.47e-09,536000000.0,92.0,25
27.0,22.0156383514,45.76,0.036,7.47e-09,536000000.0,92.0,25
28.0,22.02994766232,46.64,0.036,7.47e-09,536000000.0,92.0,25
29.0,22.04425697324,47.52,0.036,7.47e-09,536000000.0,92.0,25
30.0,22.05856628416,48.4,0.036,7.47e-09,536000000.0,92.0,25
31.0,22.07287559508,49.28,0.036,7.47e-09,536000000.0,92.0,25
32.0,22.087184906,50.16,0.036,7.47e-09,536000000.0,92.0,25
33.0,22.10149421692,51.04,0.036,7.47e-09,536000000.0,92.0,25
34.0,22.11580352784,51.92,0.036,7.47e-09,536000000.0,92.0,25
35.0,22.13011283876,52.8,0.036,7.47e-09,536000000.0,92.0,25
36.0,22.14442214968,53.68,0.036,7.47e-09,536000000.0,92.0,25
37.0,22.1587314606,54.56,0.036,7.47e-09,536000000.0,92.0,25
38.0,22.1793897629,55.44,0.036,7.47e-09,536000000.0,92.0,25
39.0,22.2000480652,56.32,0.036,7.47e-09,536000000.0,92.0,25
40.0,22.2207063675,57.2,0.036,7.47e-09,536000000.0,92.0,25
41.0,22.2413646698,58.08,0.036,7.47e-09,536000000.0,92.0,25
42.0,22.2620229721,58.96,0.036,7.47e-09,536000000.0,92.0,25
43.0,22.2826812744,59.84,0.036,7.47e-09,536000000.0,92.0,25
44.0,22.3033395767,60.72,0.036,7.47e-09,536000000.0,92.0,25
45.0,22.323997879,61.6,0.036,7.47e-09,536000000.0,92.0,25
46.0,22.3446561813,62.48,0.036,7.47e-09,536000000.0,92.0,25
47.0,22.3653144836,63.36,0.036,7.47e-09,536000000.0,92.0,25
48.0,22.3866155624,64.24,0.036,7.47e-09,536000000.0,92.0,25
49.0,22.4079166412,65.12,0.036,7.47e-09,536000000.0,92.0,25
50.0,22.42921772,66.0,0.036,7.47e-09,536000000.0,92.0,25
51.0,22.4505187988,62.94,0.036,7.47e-09,536000000.0,92.0,25
52.0,22.4718198776,62.88,0.036,7.47e-09,536000000.0,92.0,25
53.0,22.4931209564,62.82,0.036,7.47e-09,536000000.0,92.0,25
54.0,22.5144220352,62.76,0.036,7.47e-09,536000000.0,92.0,25
55.0,22.535723114,62.7,0.036,7.47e-09,536000000.0,92.0,25
56.0,22.5570241928,62.64,0.036,7.47e-09,536000000.0,92.0,25
57.0,22.5783252716,62.58,0.036,7.47e-09,536000000.0,92.0,25
58.0,22.59846286773,62.52,0.036,7.47e-09,536000000.0,92.0,25
59.0,22.61860046386,62.46,0.036,7.47e-09,536000000.0,92.0,25
60.0,22.63873805999,62.4,0.036,7.47e-09,536000000.0,92.0,25
61.0,22.65887565612,62.34,0.036,7.47e-09,536000000.0,92.0,25
62.0,22.67901325225,62.28,0.036,7.47e-09,536000000.0,92.0,25
63.0,22.69915084838,62.22,0.036,7.47e-09,536000000.0,92.0,25
64.0,22.71928844451,62.16,0.036,7.47e-09,536000000.0,92.0,25
65.0,22.73942604064,62.1,0.036,7.47e-09,536000000.0,92.0,25
66.0,22.75956363677,62.04,0.036,7.47e-09,536000000.0,92.0,25
67.0,22.7797012329,61.98,0.036,7.47e-09,536000000.0,92.0,25
68.0,22.79907855987,61.92,0.036,7.47e-09,536000000.0,92.0,25
69.0,22.81845588684,61.86,0.036,7.47e-09,536000000.0,92.0,25
70.0,22.83783321381,61.8,0.036,7.47e-09,536000000.0,92.0,25
71.0,22.85721054078,61.74,0.036,7.47e-09,536000000.0,92.0,25
72.0,22.87658786775,61.68,0.036,7.47e-09,536000000.0,92.0,25
73.0,22.89596519472,61.62,0.036,7.47e-09,536000000.0,92.0,25
74.0,22.91534252169,61.56,0.036,7.47e-09,536000000.0,92.0,25
75.0,22.93471984866,61.5,0.036,7.47e-09,536000000.0,92.0,25
76.0,22.95409717563,61.44,0.036,7.47e-09,536000000.0,92.0,25
77.0,22.9734745026,61.38,0.036,7.47e-09,536000000.0,92.0,25
78.0,22.99217834476,61.32,0.036,7.47e-09,536000000.0,92.0,25
79.0,23.01088218692,61.26,0.036,7.47e-09,536000000.0,92.0,25
80.0,23.02958602908,61.2,0.036,7.47e-09,536000000.0,92.0,25
81.0,23.04828987124,61.14,0.036,7.47e-09,536000000.0,92.0,25
82.0,23.0669937134,61.08,0.036,7.47e-09,536000000.0,92.0,25
83.0,23.08569755556,61.02,0.036,7.47e-09,536000000.0,92.0,25
84.0,23.10440139772,60.96,0.036,7.47e-09,536000000.0,92.0,25
85.0,23.12310523988,60.9,0.036,7.47e-09,536000000.0,92.0,25
86.0,23.14180908204,60.84,0.036,7.47e-09,536000000.0,92.0,25
87.0,23.1605129242,60.78,0.036,7.47e-09,536000000.0,92.0,25
88.0,23.17856178284,60.72,0.036,7.47e-09,536000000.0,92.0,25
89.0,23.19661064148,60.66,0.036,7.47e-09,536000000.0,92.0,25
90.0,23.21465950012,60.6,0.036,7.47e-09,536000000.0,92.0,25
91.0,23.23270835876,60.54,0.036,7.47e-09,536000000.0,92.0,25
92.0,23.2507572174,60.48,0.036,7.47e-09,536000000.0,92.0,25
93.0,23.26880607604,60.42,0.036,7.47e-09,536000000.0,92.0,25
94.0,23.28685493468,60.36,0.036,7.47e-09,536000000.0,92.0,25
95.0,23.30490379332,60.3,0.036,7.47e-09,536000000.0,92.0,25
96.0,23.32295265196,60.24,0.036,7.47e-09,536000000.0,92.0,25
97.0,23.3410015106,60.18,0.036,7.47e-09,536000000.0,92.0,25
98.0,23.3588701248,60.12,0.036,7.47e-09,536000000.0,92.0,25
99.0,23.376738739,60.06,0.036,7.47e-09,536000000.0,92.0,25
100.0,23.3946073532,60.0,0.036,7.47e-09,536000000.0,92.0,25
101.0,23.4124759674,60,0.036,7.47e-09,536000000.0,92.0,25
102.0,23.4303445816,60,0.036,7.47e-09,536000000.0,92.0,25
103.0,23.4482131958,60,0.036,7.47e-09,536000000.0,92.0,25
104.0,23.46608181,60,0.036,7.47e-09,536000000.0,92.0,25
105.0,23.4839504242,60,0.036,7.47e-09,536000000.0,92.0,25
106.0,23.5018190384,60,0.036,7.47e-09,536000000.0,92.0,25
107.0,23.5196876526,60,0.036,7.47e-09,536000000.0,92.0,25
108.0,23.53752307893,60,0.036,7.47e-09,536000000.0,92.0,25
109.0,23.55535850526,60,0.036,7.47e-09,536000000.0,92.0,25
110.0,23.57319393159,60,0.036,7.47e-09,536000000.0,92.0,25
111.0,23.59102935792,60,0.036,7.47e-09,536000000.0,92.0,25
112.0,23.60886478425,60,0.036,7.47e-09,536000000.0,92.0,25
113.0,23.62670021058,60,0.036,7.47e-09,536000000.0,92.0,25
114.0,23.64453563691,60,0.036,7.47e-09,536000000.0,92.0,25
115.0,23.66237106324,60,0.036,7.47e-09,536000000.0,92.0,25
116.0,23.68020648957,60,0.036,7.47e-09,536000000.0,92.0,25
117.0,23.6980419159,60,0.036,7.47e-09,536000000.0,92.0,25
118.0,23.71580696107,60,0.036,7.47e-09,536000000.0,92.0,25
119.0,23.73357200624,60,0.036,7.47e-09,536000000.0,92.0,25
120.0,23.75133705141,60,0.036,7.47e-09,536000000.0,92.0,25
121.0,23.76910209658,60,0.036,7.47e-09,536000000.0,92.0,25
122.0,23.78686714175,60,0.036,7.47e-09,536000000.0,92.0,25
123.0,23.80463218692,60,0.036,7.47e-09,536000000.0,92.0,25
124.0,23.82239723209,60,0.036,7.47e-09,536000000.0,92.0,25
125.0,23.84016227726,60,0.036,7.47e-09,536000000.0,92.0,25
126.0,23.85792732243,60,0.036,7.47e-09,536000000.0,92.0,25
127.0,23.8756923676,60,0.036,7.47e-09,536000000.0,92.0,25
128.0,23.89337730412,60,0.036,7.47e-09,536000000.0,92.0,25
129.0,23.91106224064,60,0.036,7.47e-09,536000000.0,92.0,25
130.0,23.92874717716,60,0.036,7.47e-09,536000000.0,92.0,25
131.0,23.94643211368,60,0.036,7.47e-09,536000000.0,92.0,25
132.0,23.9641170502,60,0.036,7.47e-09,536000000.0,92.0,25
133.0,23.98180198672,60,0.036,7.47e-09,536000000.0,92.0,25
134.0,23.99948692324,60,0.036,7.47e-09,536000000.0,92.0,25
135.0,24.01717185976,60,0.036,7.47e-09,536000000.0,92.0,25
136.0,24.03485679628,60,0.036,7.47e-09,536000000.0,92.0,25
137.0,24.0525417328,60,0.036,7.47e-09,536000000.0,92.0,25
138.0,24.07014369966,60,0.036,7.47e-09,536000000.0,92.0,25
139.0,24.08774566652,60,0.036,7.47e-09,536000000.0,92.0,25
140.0,24.10534763338,60,0.036,7.47e-09,536000000.0,92.0,25
141.0,24.12294960024,60,0.036,7.47e-09,536000000.0,92.0,25
142.0,24.1405515671,60,0.036,7.47e-09,536000000.0,92.0,25
143.0,24.15815353396,60,0.036,7.47e-09,536000000.0,92.0,25
144.0,24.17575550082,60,0.036,7.47e-09,536000000.0,92.0,25
145.0,24.19335746768,60,0.036,7.47e-09,536000000.0,92.0,25
146.0,24.21095943454,60,0.036,7.47e-09,536000000.0,92.0,25
147.0,24.2285614014,60,0.036,7.47e-09,536000000.0,92.0,25
148.0,24.24607868198,60,0.036,7.47e-09,536000000.0,92.0,25
149.0,24.26359596256,60,0.036,7.47e-09,536000000.0,92.0,25
150.0,24.28111324314,60,0.036,7.47e-09,536000000.0,92.0,25
151.0,24.29863052372,60,0.036,7.47e-09,536000000.0,92.0,25
152.0,24.3161478043,60,0.036,7.47e-09,536000000.0,92.0,25
153.0,24.33366508488,60,0.036,7.47e-09,536000000.0,92.0,25
154.0,24.35118236546,60,0.036,7.47e-09,536000000.0,92.0,25
155.0,24.36869964604,60,0.036,7.47e-09,536000000.0,92.0,25
156.0,24.38621692662,60,0.036,7.47e-09,536000000.0,92.0,25
157.0,24.4037342072,60,0.036,7.47e-09,536000000.0,92.0,25
158.0,24.42116699223,60,0.036,7.47e-09,536000000.0,92.0,25
159.0,24.43859977726,60,0.036,7.47e-09,536000000.0,92.0,25
160.0,24.45603256229,60,0.036,7.47e-09,536000000.0,92.0,25
161.0,24.47346534732,60,0.036,7.47e-09,536000000.0,92.0,25
162.0,24.49089813235,60,0.036,7.47e-09,536000000.0,92.0,25
163.0,24.50833091738,60,0.036,7.47e-09,536000000.0,92.0,25
164.0,24.52576370241,60,0.036,7.47e-09,536000000.0,92.0,25
165.0,24.54319648744,60,0.036,7.47e-09,536000000.0,92.0,25
166.0,24.56062927247,60,0.036,7.47e-09,536000000.0,92.0,25
167.0,24.5780620575,60,0.036,7.47e-09,536000000.0,92.0,25
168.0,24.59540996552,60,0.036,7.47e-09,536000000.0,92.0,25
169.0,24.61275787354,60,0.036,7.47e-09,536000000.0,92.0,25
170.0,24.63010578156,60,0.036,7.47e-09,536000000.0,92.0,25
171.0,24.64745368958,60,0.036,7.47e-09,536000000.0,92.0,25
172.0,24.6648015976,60,0.036,7.47e-09,536000000.0,92.0,25
173.0,24.68214950562,60,0.036,7.47e-09,536000000.0,92.0,25
174.0,24.69949741364,60,0.036,7.47e-09,536000000.0,92.0,25
175.0,24.71684532166,60,0.036,7.47e-09,536000000.0,92.0,25
176.0,24.73419322968,60,0.036,7.47e-09,536000000.0,92.0,25
177.0,24.7515411377,60,0.036,7.47e-09,536000000.0,92.0,25
178.0,24.76880474091,60,0.036,7.47e-09,536000000.0,92.0,25
179.0,24.78606834412,60,0.036,7.47e-09,536000000.0,92.0,25
180.0,24.80333194733,60,0.036,7.47e-09,536000000.0,92.0,25
181.0,24.82059555054,60,0.036,7.47e-09,536000000.0,92.0,25
182.0,24.83785915375,60,0.036,7.47e-09,536000000.0,92.0,25
183.0,24.85512275696,60,0.036,7.47e-09,536000000.0,92.0,25
184.0,24.87238636017,60,0.036,7.47e-09,536000000.0,92.0,25
185.0,24.88964996338,60,0.036,7.47e-09,536000000.0,92.0,25
186.0,24.90691356659,60,0.036,7.47e-09,536000000.0,92.0,25
187.0,24.9241771698,60,0.036,7.47e-09,536000000.0,92.0,25
188.0,24.94135627747,60,0.036,7.47e-09,536000000.0,92.0,25
189.0,24.95853538514,60,0.036,7.47e-09,536000000.0,92.0,25
190.0,24.97571449281,60,0.036,7.47e-09,536000000.0,92.0,25
191.0,24.99289360048,60,0.036,7.47e-09,536000000.0,92.0,25
192.0,25.01007270815,60,0.036,7.47e-09,536000000.0,92.0,25
193.0,25.02725181582,60,0.036,7.47e-09,536000000.0,92.0,25
194.0,25.04443092349,60,0.036,7.47e-09,536000000.0,92.0,25
195.0,25.06161003116,60,0.036,7.47e-09,536000000.0,92.0,25
196.0,25.07878913883,60,0.036,7.47e-09,536000000.0,92.0,25
197.0,25.0959682465,60,0.036,7.47e-09,536000000.0,92.0,25
198.0,25.11306362156,60,0.036,7.47e-09,536000000.0,92.0,25
199.0,25.13015899662,60,0.036,7.47e-09,536000000.0,92.0,25
200.0,25.14725437168,60,0.036,7.47e-09,536000000.0,92.0,25
201.0,25.16434974674,60,0.036,7.47e-09,536000000.0,92.0,25
202.0,25.1814451218,60,0.036,7.47e-09,536000000.0,92.0,25
203.0,25.19854049686,60,0.036,7.47e-09,536000000.0,92.0,25
204.0,25.21563587192,60,0.036,7.47e-09,536000000.0,92.0,25
205.0,25.23273124698,60,0.036,7.47e-09,536000000.0,92.0,25
206.0,25.24982662204,60,0.036,7.47e-09,536000000.0,92.0,25
207.0,25.2669219971,60,0.036,7.47e-09,536000000.0,92.0,25
208.0,25.28393363955,60,0.036,7.47e-09,536000000.0,92.0,25
209.0,25.300945282,60,0.036,7.47e-09,536000000.0,92.0,25
210.0,25.31795692445,60,0.036,7.47e-09,536000000.0,92.0,25
211.0,25.3349685669,60,0.036,7.47e-09,536000000.0,92.0,25
212.0,25.35198020935,60,0.036,7.47e-09,536000000.0,92.0,25
213.0,25.3689918518,60,0.036,7.47e-09,536000000.0,92.0,25
214.0,25.38600349425,60,0.036,7.47e-09,536000000.0,92.0,25
215.0,25.4030151367,60,0.036,7.47e-09,536000000.0,92.0,25
216.0,25.42002677915,60,0.036,7.47e-09,536000000.0,92.0,25
217.0,25.4370384216,60,0.036,7.47e-09,536000000.0,92.0,25
218.0,25.45396690366,60,0.036,7.47e-09,536000000.0,92.0,25
219.0,25.47089538572,60,0.036,7.47e-09,536000000.0,92.0,25
220.0,25.48782386778,60,0.036,7.47e-09,536000000.0,92.0,25
221.0,25.50475234984,60,0.036,7.47e-09,536000000.0,92.0,25
222.0,25.5216808319,60,0.036,7.47e-09,536000000.0,92.0,25
223.0,25.53860931396,60,0.036,7.47e-09,536000000.0,92.0,25
224.0,25.55553779602,60,0.036,7.47e-09,536000000.0,92.0,25
225.0,25.57246627808,60,0.036,7.47e-09,536000000.0,92.0,25
226.0,25.58939476014,60,0.036,7.47e-09,536000000.0,92.0,25
227.0,25.6063232422,60,0.036,7.47e-09,536000000.0,92.0,25
228.0,25.62316875459,60,0.036,7.47e-09,536000000.0,92.0,25
229.0,25.64001426698,60,0.036,7.47e-09,536000000.0,92.0,25
230.0,25.65685977937,60,0.036,7.47e-09,536000000.0,92.0,25
231.0,25.67370529176,60,0.036,7.47e-09,536000000.0,92.0,25
232.0,25.69055080415,60,0.036,7.47e-09,536000000.0,92.0,25
233.0,25.70739631654,60,0.036,7.47e-09,536000000.0,92.0,25
234.0,25.72424182893,60,0.036,7.47e-09,536000000.0,92.0,25
235.0,25.74108734132,60,0.036,7.47e-09,536000000.0,92.0,25
236.0,25.75793285371,60,0.036,7.47e-09,536000000.0,92.0,25
237.0,25.7747783661,60,0.036,7.47e-09,536000000.0,92.0,25
238.0,25.79154167176,60,0.036,7.47e-09,536000000.0,92.0,25
239.0,25.80830497742,60,0.036,7.47e-09,536000000.0,92.0,25
240.0,25.82506828308,60,0.036,7.47e-09,536000000.0,92.0,25
241.0,25.84183158874,60,0.036,7.47e-09,536000000.0,92.0,25
242.0,25.8585948944,60,0.036,7.47e-09,536000000.0,92.0,25
243.0,25.87535820006,60,0.036,7.47e-09,536000000.0,92.0,25
244.0,25.89212150572,60,0.036,7.47e-09,536000000.0,92.0,25
245.0,25.90888481138,60,0.036,7.47e-09,536000000.0,92.0,25
246.0,25.92564811704,60,0.036,7.47e-09,536000000.0,92.0,25
247.0,25.9424114227,60,0.036,7.47e-09,536000000.0,92.0,25
248.0,25.95909252164,60,0.036,7.47e-09,536000000.0,92.0,25
249.0,25.97577362058,60,0.036,7.47e-09,536000000.0,92.0,25
250.0,25.99245471952,60,0.036,7.47e-09,536000000.0,92.0,25
251.0,26.00913581846,60,0.036,7.47e-09,536000000.0,92.0,25
252.0,26.0258169174,60,0.036,7.47e-09,536000000.0,92.0,25
253.0,26.04249801634,60,0.036,7.47e-09,536000000.0,92.0,25
254.0,26.05917911528,60,0.036,7.47e-09,536000000.0,92.0,25
255.0,26.07586021422,60,0.036,7.47e-09,536000000.0,92.0,25
256.0,26.09254131316,60,0.036,7.47e-09,536000000.0,92.0,25
257.0,26.1092224121,60,0.036,7.47e-09,536000000.0,92.0,25
258.0,26.12582168578,60,0.036,7.47e-09,536000000.0,92.0,25
259.0,26.14242095946,60,0.036,7.47e-09,536000000.0,92.0,25
260.0,26.15902023314,60,0.036,7.47e-09,536000000.0,92.0,25
261.0,26.17561950682,60,0.036,7.47e-09,536000000.0,92.0,25
262.0,26.1922187805,60,0.036,7.47e-09,536000000.0,92.0,25
263.0,26.20881805418,60,0.036,7.47e-09,536000000.0,92.0,25
264.0,26.22541732786,60,0.036,7.47e-09,536000000.0,92.0,25
265.0,26.24201660154,60,0.036,7.47e-09,536000000.0,92.0,25
266.0,26.25861587522,60,0.036,7.47e-09,536000000.0,92.0,25
267.0,26.2752151489,60,0.036,7.47e-09,536000000.0,92.0,25
268.0,26.29173336027,60,0.036,7.47e-09,536000000.0,92.0,25
269.0,26.30825157164,60,0.036,7.47e-09,536000000.0,92.0,25
270.0,26.32476978301,60,0.036,7.47e-09,536000000.0,92.0,25
271.0,26.34128799438,60,0.036,7.47e-09,536000000.0,92.0,25
272.0,26.35780620575,60,0.036,7.47e-09,536000000.0,92.0,25
273.0,26.37432441712,60,0.036,7.47e-09,536000000.0,92.0,25
274.0,26.39084262849,60,0.036,7.47e-09,536000000.0,92.0,25
275.0,26.40736083986,60,0.036,7.47e-09,536000000.0,92.0,25
276.0,26.42387905123,60,0.036,7.47e-09,536000000.0,92.0,25
277.0,26.4403972626,60,0.036,7.47e-09,536000000.0,92.0,25
278.0,26.45683441165,60,0.036,7.47e-09,536000000.0,92.0,25
279.0,26.4732715607,60,0.036,7.47e-09,536000000.0,92.0,25
280.0,26.48970870975,60,0.036,7.47e-09,536000000.0,92.0,25
281.0,26.5061458588,60,0.036,7.47e-09,536000000.0,92.0,25
282.0,26.52258300785,60,0.036,7.47e-09,536000000.0,92.0,25
283.0,26.5390201569,60,0.036,7.47e-09,536000000.0,92.0,25
284.0,26.55545730595,60,0.036,7.47e-09,536000000.0,92.0,25
285.0,26.571894455,60,0.036,7.47e-09,536000000.0,92.0,25
286.0,26.58833160405,60,0.036,7.47e-09,536000000.0,92.0,25
287.0,26.6047687531,60,0.036,7.47e-09,536000000.0,92.0,25
288.0,26.62112541203,60,0.036,7.47e-09,536000000.0,92.0,25
289.0,26.63748207096,60,0.036,7.47e-09,536000000.0,92.0,25
290.0,26.65383872989,60,0.036,7.47e-09,536000000.0,92.0,25
291.0,26.67019538882,60,0.036,7.47e-09,536000000.0,92.0,25
292.0,26.68655204775,60,0.036,7.47e-09,536000000.0,92.0,25
293.0,26.70290870668,60,0.036,7.47e-09,536000000.0,92.0,25
294.0,26.71926536561,60,0.036,7.47e-09,536000000.0,92.0,25
295.0,26.73562202454,60,0.036,7.47e-09,536000000.0,92.0,25
296.0,26.75197868347,60,0.036,7.47e-09,536000000.0,92.0,25
297.0,26.7683353424,60,0.036,7.47e-09,536000000.0,92.0,25
298.0,26.78461208343,60,0.036,7.47e-09,536000000.0,92.0,25
299.0,26.80088882446,60,0.036,7.47e-09,536000000.0,92.0,25
300.0,26.81716556549,60,0.036,7.47e-09,536000000.0,92.0,25
301.0,26.83344230652,60,0.036,7.47e-09,536000000.0,92.0,25
302.0,26.84971904755,60,0.036,7.47e-09,536000000.0,92.0,25
303.0,26.86599578858,60,0.036,7.47e-09,536000000.0,92.0,25
304.0,26.88227252961,60,0.036,7.47e-09,536000000.0,92.0,25
305.0,26.89854927064,60,0.036,7.47e-09,536000000.0,92.0,25
306.0,26.91482601167,60,0.036,7.47e-09,536000000.0,92.0,25
307.0,26.9311027527,60,0.036,7.47e-09,536000000.0,92.0,25
308.0,26.94729957582,60,0.036,7.47e-09,536000000.0,92.0,25
309.0,26.96349639894,60,0.036,7.47e-09,536000000.0,92.0,25
310.0,26.97969322206,60,0.036,7.47e-09,536000000.0,92.0,25
311.0,26.99589004518,60,0.036,7.47e-09,536000000.0,92.0,25
312.0,27.0120868683,60,0.036,7.47e-09,536000000.0,92.0,25
313.0,27.02828369142,60,0.036,7.47e-09,536000000.0,92.0,25
314.0,27.04448051454,60,0.036,7.47e-09,536000000.0,92.0,25
315.0,27.06067733766,60,0.036,7.47e-09,536000000.0,92.0,25
316.0,27.07687416078,60,0.036,7.47e-09,536000000.0,92.0,25
317.0,27.0930709839,60,0.036,7.47e-09,536000000.0,92.0,25
318.0,27.10918846132,60,0.036,7.47e-09,536000000.0,92.0,25
319.0,27.12530593874,60,0.036,7.47e-09,536000000.0,92.0,25
320.0,27.14142341616,60,0.036,7.47e-09,536000000.0,92.0,25
321.0,27.15754089358,60,0.036,7.47e-09,536000000.0,92.0,25
322.0,27.173658371,60,0.036,7.47e-09,536000000.0,92.0,25
323.0,27.18977584842,60,0.036,7.47e-09,536000000.0,92.0,25
324.0,27.20589332584,60,0.036,7.47e-09,536000000.0,92.0,25
325.0,27.22201080326,60,0.036,7.47e-09,536000000.0,92.0,25
326.0,27.23812828068,60,0.036,7.47e-09,536000000.0,92.0,25
327.0,27.2542457581,60,0.036,7.47e-09,536000000.0,92.0,25
328.0,27.27028446201,60,0.036,7.47e-09,536000000.0,92.0,25
329.0,27.28632316592,60,0.036,7.47e-09,536000000.0,92.0,25
330.0,27.30236186983,60,0.036,7.47e-09,536000000.0,92.0,25
331.0,27.31840057374,60,0.036,7.47e-09,536000000.0,92.0,25
332.0,27.33443927765,60,0.036,7.47e-09,536000000.0,92.0,25
333.0,27.35047798156,60,0.036,7.47e-09,536000000.0,92.0,25
334.0,27.36651668547,60,0.036,7.47e-09,536000000.0,92.0,25
335.0,27.38255538938,60,0.036,7.47e-09,536000000.0,92.0,25
336.0,27.39859409329,60,0.036,7.47e-09,536000000.0,92.0,25
