time,T_int,T_ext_1,Film_Coef,Density,Specific_Heat,Thermal_Conductivity,Radius
1.0,21.970664978,22.88,0.036,7.47e-09,186000000.0,92.0,25
2.0,21.9476222992,23.76,0.036,7.47e-09,186000000.0,92.0,25
3.0,21.9282894135,24.64,0.036,7.47e-09,186000000.0,92.0,25
4.0,21.9133167267,25.52,0.036,7.47e-09,186000000.0,92.0,25
5.0,21.8983440399,26.4,0.036,7.47e-09,186000000.0,92.0,25
6.0,21.889514923075,27.28,0.036,7.47e-09,186000000.0,92.0,25
7.0,21.88068580625,28.16,0.036,7.47e-09,186000000.0,92.0,25
8.0,21.871856689425,29.04,0.036,7.47e-09,186000000.0,92.0,25
9.0,21.8630275726,29.92,0.036,7.47e-09,186000000.0,92.0,25
10.0,21.86481833455,30.8,0.036,7.47e-09,186000000.0,92.0,25
11.0,21.8666090965,31.68,0.036,7.47e-09,186000000.0,92.0,25
12.0,21.86839985845,32.56,0.036,7.47e-09,186000000.0,92.0,25
13.0,21.8701906204,33.44,0.036,7.47e-09,186000000.0,92.0,25
14.0,21.87198138235,34.32,0.036,7.47e-09,186000000.0,92.0,25
15.0,21.8737721443,35.2,0.036,7.47e-09,186000000.0,92.0,25
16.0,21.87556290625,36.08,0.036,7.47e-09,186000000.0,92.0,25
17.0,21.8773536682,36.96,0.036,7.47e-09,186000000.0,92.0,25
18.0,21.89195938109,37.84,0.036,7.47e-09,186000000.0,92.0,25
19.0,21.90656509398,38.72,0.036,7.47e-09,186000000.0,92.0,25
20.0,21.92117080687,39.6,0.036,7.47e-09,186000000.0,92.0,25
21.0,21.93577651976,40.48,0.036,7.47e-09,186000000.0,92.0,25
22.0,21.95038223265,41.36,0.036,7.47e-09,186000000.0,92.0,25
23.0,21.96498794554,42.24,0.036,7.47e-09,186000000.0,92.0,25
24.0,21.97959365843,43.12,0.036,7.47e-09,186000000.0,92.0,25
25.0,21.99419937132,44.0,0.036,7.47e-09,186000000.0,92.0,25
26.0,22.00880508421,44.88,0.036,7.47e-09,186000000.0,92.0,25
27.0,22.0234107971,45.76,0.036,7.47e-09,186000000.0,92.0,25
28.0,22.05069751738,46.64,0.036,7.47e-09,186000000.0,92.0,25
29.0,22.07798423766,47.52,0.036,7.47e-09,186000000.0,92.0,25
30.0,22.10527095794,48.4,0.036,7.47e-09,186000000.0,92.0,25
31.0,22.13255767822,49.28,0.036,7.47e-09,186000000.0,92.0,25
32.0,22.1598443985,50.16,0.036,7.47e-09,186000000.0,92.0,25
33.0,22.18713111878,51.04,0.036,7.47e-09,186000000.0,92.0,25
34.0,22.21441783906,51.92,0.036,7.47e-09,186000000.0,92.0,25
35.0,22.24170455934,52.8,0.036,7.47e-09,186000000.0,92.0,25
36.0,22.26899127962,53.68,0.036,7.47e-09,186000000.0,92.0,25
37.0,22.2962779999,54.56,0.036,7.47e-09,186000000.0,92.0,25
38.0,22.33615112307,55.44,0.036,7.47e-09,186000000.0,92.0,25
39.0,22.37602424624,56.32,0.036,7.47e-09,186000000.0,92.0,25
40.0,22.41589736941,57.2,0.036,7.47e-09,186000000.0,92.0,25
41.0,22.45577049258,58.08,0.036,7.47e-09,186000000.0,92.0,25
42.0,22.49564361575,58.96,0.036,7.47e-09,186000000.0,92.0,25
43.0,22.53551673892,59.84,0.036,7.47e-09,186000000.0,92.0,25
44.0,22.57538986209,60.72,0.036,7.47e-09,186000000.0,92.0,25
45.0,22.61526298526,61.6,0.036,7.47e-09,186000000.0,92.0,25
46.0,22.65513610843,62.48,0.036,7.47e-09,186000000.0,92.0,25
47.0,22.6950092316,63.36,0.036,7.47e-09,186000000.0,92.0,25
48.0,22.73672370914,64.24,0.036,7.47e-09,186000000.0,92.0,25
49.0,22.77843818668,65.12,0.036,7.47e-09,186000000.0,92.0,25
50.0,22.82015266422,66.0,0.036,7.47e-09,186000000.0,92.0,25
51.0,22.86186714176,62.94,0.036,7.47e-09,186000000.0,92.0,25
52.0,22.9035816193,62.88,0.036,7.47e-09,186000000.0,92.0,25
53.0,22.94529609684,62.82,0.036,7.47e-09,186000000.0,92.0,25
54.0,22.98701057438,62.76,0.036,7.47e-09,186000000.0,92.0,25
55.0,23.02872505192,62.7,0.036,7.47e-09,186000000.0,92.0,25
56.0,23.07043952946,62.64,0.036,7.47e-09,186000000.0,92.0,25
57.0,23.112154007,62.58,0.036,7.47e-09,186000000.0,92.0,25
58.0,23.15189723972,62.52,0.036,7.47e-09,186000000.0,92.0,25
59.0,23.19164047244,62.46,0.036,7.47e-09,186000000.0,92.0,25
60.0,23.23138370516,62.4,0.036,7.47e-09,186000000.0,92.0,25
61.0,23.27112693788,62.34,0.036,7.47e-09,186000000.0,92.0,25
62.0,23.3108701706,62.28,0.036,7.47e-09,186000000.0,92.0,25
63.0,23.35061340332,62.22,0.036,7.47e-09,186000000.0,92.0,25
64.0,23.39035663604,62.16,0.036,7.47e-09,186000000.0,92.0,25
65.0,23.43009986876,62.1,0.036,7.47e-09,186000000.0,92.0,25
66.0,23.46984310148,62.04,0.036,7.47e-09,186000000.0,92.0,25
67.0,23.5095863342,61.98,0.036,7.47e-09,186000000.0,92.0,25
68.0,23.54777717588,61.92,0.036,7.47e-09,186000000.0,92.0,25
69.0,23.58596801756,61.86,0.036,7.47e-09,186000000.0,92.0,25
70.0,23.62415885924,61.8,0.036,7.47e-09,186000000.0,92.0,25
71.0,23.66234970092,61.74,0.036,7.47e-09,186000000.0,92.0,25
72.0,23.7005405426,61.68,0.036,7.47e-09,186000000.0,92.0,25
73.0,23.73873138428,61.62,0.036,7.47e-09,186000000.0,92.0,25
74.0,23.77692222596,61.56,0.036,7.47e-09,186000000.0,92.0,25
75.0,23.81511306764,61.5,0.036,7.47e-09,186000000.0,92.0,25
76.0,23.85330390932,61.44,0.036,7.47e-09,186000000.0,92.0,25
77.0,23.891494751,61.38,0.036,7.47e-09,186000000.0,92.0,25
78.0,23.92817554476,61.32,0.036,7.47e-09,186000000.0,92.0,25
79.0,23.96485633852,61.26,0.036,7.47e-09,186000000.0,92.0,25
80.0,24.00153713228,61.2,0.036,7.47e-09,186000000.0,92.0,25
81.0,24.03821792604,61.14,0.036,7.47e-09,186000000.0,92.0,25
82.0,24.0748987198,61.08,0.036,7.47e-09,186000000.0,92.0,25
83.0,24.11157951356,61.02,0.036,7.47e-09,186000000.0,92.0,25
84.0,24.14826030732,60.96,0.036,7.47e-09,186000000.0,92.0,25
85.0,24.18494110108,60.9,0.036,7.47e-09,186000000.0,92.0,25
86.0,24.22162189484,60.84,0.036,7.47e-09,186000000.0,92.0,25
87.0,24.2583026886,60.78,0.036,7.47e-09,186000000.0,92.0,25
88.0,24.29347705841,60.72,0.036,7.47e-09,186000000.0,92.0,25
89.0,24.32865142822,60.66,0.036,7.47e-09,186000000.0,92.0,25
90.0,24.36382579803,60.6,0.036,7.47e-09,186000000.0,92.0,25
91.0,24.39900016784,60.54,0.036,7.47e-09,186000000.0,92.0,25
92.0,24.43417453765,60.48,0.036,7.47e-09,186000000.0,92.0,25
93.0,24.46934890746,60.42,0.036,7.47e-09,186000000.0,92.0,25
94.0,24.50452327727,60.36,0.036,7.47e-09,186000000.0,92.0,25
95.0,24.53969764708,60.3,0.036,7.47e-09,186000000.0,92.0,25
96.0,24.57487201689,60.24,0.036,7.47e-09,186000000.0,92.0,25
97.0,24.6100463867,60.18,0.036,7.47e-09,186000000.0,92.0,25
98.0,24.64460525511,60.12,0.036,7.47e-09,186000000.0,92.0,25
99.0,24.67916412352,60.06,0.036,7.47e-09,186000000.0,92.0,25
100.0,24.71372299193,60.0,0.036,7.47e-09,186000000.0,92.0,25
101.0,24.74828186034,60,0.036,7.47e-09,186000000.0,92.0,25
102.0,24.78284072875,60,0.036,7.47e-09,186000000.0,92.0,25
103.0,24.81739959716,60,0.036,7.47e-09,186000000.0,92.0,25
104.0,24.85195846557,60,0.036,7.47e-09,186000000.0,92.0,25
105.0,24.88651733398,60,0.036,7.47e-09,186000000.0,92.0,25
106.0,24.92107620239,60,0.036,7.47e-09,186000000.0,92.0,25
107.0,24.9556350708,60,0.036,7.47e-09,186000000.0,92.0,25
108.0,24.98989505768,60,0.036,7.47e-09,186000000.0,92.0,25
109.0,25.02415504456,60,0.036,7.47e-09,186000000.0,92.0,25
110.0,25.05841503144,60,0.036,7.47e-09,186000000.0,92.0,25
111.0,25.09267501832,60,0.036,7.47e-09,186000000.0,92.0,25
112.0,25.1269350052,60,0.036,7.47e-09,186000000.0,92.0,25
113.0,25.16119499208,60,0.036,7.47e-09,186000000.0,92.0,25
114.0,25.19545497896,60,0.036,7.47e-09,186000000.0,92.0,25
115.0,25.22971496584,60,0.036,7.47e-09,186000000.0,92.0,25
116.0,25.26397495272,60,0.036,7.47e-09,186000000.0,92.0,25
117.0,25.2982349396,60,0.036,7.47e-09,186000000.0,92.0,25
118.0,25.33216285708,60,0.036,7.47e-09,186000000.0,92.0,25
119.0,25.36609077456,60,0.036,7.47e-09,186000000.0,92.0,25
120.0,25.40001869204,60,0.036,7.47e-09,186000000.0,92.0,25
121.0,25.43394660952,60,0.036,7.47e-09,186000000.0,92.0,25
122.0,25.467874527,60,0.036,7.47e-09,186000000.0,92.0,25
123.0,25.50180244448,60,0.036,7.47e-09,186000000.0,92.0,25
124.0,25.53573036196,60,0.036,7.47e-09,186000000.0,92.0,25
125.0,25.56965827944,60,0.036,7.47e-09,186000000.0,92.0,25
126.0,25.60358619692,60,0.036,7.47e-09,186000000.0,92.0,25
127.0,25.6375141144,60,0.036,7.47e-09,186000000.0,92.0,25
128.0,25.67110900881,60,0.036,7.47e-09,186000000.0,92.0,25
129.0,25.70470390322,60,0.036,7.47e-09,186000000.0,92.0,25
130.0,25.73829879763,60,0.036,7.47e-09,186000000.0,92.0,25
131.0,25.77189369204,60,0.036,7.47e-09,186000000.0,92.0,25
132.0,25.80548858645,60,0.036,7.47e-09,186000000.0,92.0,25
133.0,25.83908348086,60,0.036,7.47e-09,186000000.0,92.0,25
134.0,25.87267837527,60,0.036,7.47e-09,186000000.0,92.0,25
135.0,25.90627326968,60,0.036,7.47e-09,186000000.0,92.0,25
136.0,25.93986816409,60,0.036,7.47e-09,186000000.0,92.0,25
137.0,25.9734630585,60,0.036,7.47e-09,186000000.0,92.0,25
138.0,26.00672836306,60,0.036,7.47e-09,186000000.0,92.0,25
139.0,26.03999366762,60,0.036,7.47e-09,186000000.0,92.0,25
140.0,26.07325897218,60,0.036,7.47e-09,186000000.0,92.0,25
141.0,26.10652427674,60,0.036,7.47e-09,186000000.0,92.0,25
142.0,26.1397895813,60,0.036,7.47e-09,186000000.0,92.0,25
143.0,26.17305488586,60,0.036,7.47e-09,186000000.0,92.0,25
144.0,26.20632019042,60,0.036,7.47e-09,186000000.0,92.0,25
145.0,26.23958549498,60,0.036,7.47e-09,186000000.0,92.0,25
146.0,26.27285079954,60,0.036,7.47e-09,186000000.0,92.0,25
147.0,26.3061161041,60,0.036,7.47e-09,186000000.0,92.0,25
148.0,26.33905563352,60,0.036,7.47e-09,186000000.0,92.0,25
149.0,26.37199516294,60,0.036,7.47e-09,186000000.0,92.0,25
150.0,26.40493469236,60,0.036,7.47e-09,186000000.0,92.0,25
151.0,26.43787422178,60,0.036,7.47e-09,186000000.0,92.0,25
152.0,26.4708137512,60,0.036,7.47e-09,186000000.0,92.0,25
153.0,26.50375328062,60,0.036,7.47e-09,186000000.0,92.0,25
154.0,26.53669281004,60,0.036,7.47e-09,186000000.0,92.0,25
155.0,26.56963233946,60,0.036,7.47e-09,186000000.0,92.0,25
156.0,26.60257186888,60,0.036,7.47e-09,186000000.0,92.0,25
157.0,26.6355113983,60,0.036,7.47e-09,186000000.0,92.0,25
158.0,26.66812839507,60,0.036,7.47e-09,186000000.0,92.0,25
159.0,26.70074539184,60,0.036,7.47e-09,186000000.0,92.0,25
160.0,26.73336238861,60,0.036,7.47e-09,186000000.0,92.0,25
161.0,26.76597938538,60,0.036,7.47e-09,186000000.0,92.0,25
162.0,26.79859638215,60,0.036,7.47e-09,186000000.0,92.0,25
163.0,26.83121337892,60,0.036,7.47e-09,186000000.0,92.0,25
164.0,26.86383037569,60,0.036,7.47e-09,186000000.0,92.0,25
165.0,26.89644737246,60,0.036,7.47e-09,186000000.0,92.0,25
166.0,26.92906436923,60,0.036,7.47e-09,186000000.0,92.0,25
167.0,26.961681366,60,0.036,7.47e-09,186000000.0,92.0,25
168.0,26.99397926334,60,0.036,7.47e-09,186000000.0,92.0,25
169.0,27.02627716068,60,0.036,7.47e-09,186000000.0,92.0,25
170.0,27.05857505802,60,0.036,7.47e-09,186000000.0,92.0,25
171.0,27.09087295536,60,0.036,7.47e-09,186000000.0,92.0,25
172.0,27.1231708527,60,0.036,7.47e-09,186000000.0,92.0,25
173.0,27.15546875004,60,0.036,7.47e-09,186000000.0,92.0,25
174.0,27.18776664738,60,0.036,7.47e-09,186000000.0,92.0,25
175.0,27.22006454472,60,0.036,7.47e-09,186000000.0,92.0,25
176.0,27.25236244206,60,0.036,7.47e-09,186000000.0,92.0,25
177.0,27.2846603394,60,0.036,7.47e-09,186000000.0,92.0,25
178.0,27.3166423798,60,0.036,7.47e-09,186000000.0,92.0,25
179.0,27.3486244202,60,0.036,7.47e-09,186000000.0,92.0,25
180.0,27.3806064606,60,0.036,7.47e-09,186000000.0,92.0,25
181.0,27.412588501,60,0.036,7.47e-09,186000000.0,92.0,25
182.0,27.4445705414,60,0.036,7.47e-09,186000000.0,92.0,25
183.0,27.4765525818,60,0.036,7.47e-09,186000000.0,92.0,25
184.0,27.5085346222,60,0.036,7.47e-09,186000000.0,92.0,25
185.0,27.5405166626,60,0.036,7.47e-09,186000000.0,92.0,25
186.0,27.572498703,60,0.036,7.47e-09,186000000.0,92.0,25
187.0,27.6044807434,60,0.036,7.47e-09,186000000.0,92.0,25
188.0,27.63615016937,60,0.036,7.47e-09,186000000.0,92.0,25
189.0,27.66781959534,60,0.036,7.47e-09,186000000.0,92.0,25
190.0,27.69948902131,60,0.036,7.47e-09,186000000.0,92.0,25
191.0,27.73115844728,60,0.036,7.47e-09,186000000.0,92.0,25
192.0,27.76282787325,60,0.036,7.47e-09,186000000.0,92.0,25
193.0,27.79449729922,60,0.036,7.47e-09,186000000.0,92.0,25
194.0,27.82616672519,60,0.036,7.47e-09,186000000.0,92.0,25
195.0,27.85783615116,60,0.036,7.47e-09,186000000.0,92.0,25
196.0,27.88950557713,60,0.036,7.47e-09,186000000.0,92.0,25
197.0,27.9211750031,60,0.036,7.47e-09,186000000.0,92.0,25
198.0,27.95253486638,60,0.036,7.47e-09,186000000.0,92.0,25
199.0,27.98389472966,60,0.036,7.47e-09,186000000.0,92.0,25
200.0,28.01525459294,60,0.036,7.47e-09,186000000.0,92.0,25
201.0,28.04661445622,60,0.036,7.47e-09,186000000.0,92.0,25
202.0,28.0779743195,60,0.036,7.47e-09,186000000.0,92.0,25
203.0,28.10933418278,60,0.036,7.47e-09,186000000.0,92.0,25
204.0,28.14069404606,60,0.036,7.47e-09,186000000.0,92.0,25
205.0,28.17205390934,60,0.036,7.47e-09,186000000.0,92.0,25
206.0,28.20341377262,60,0.036,7.47e-09,186000000.0,92.0,25
207.0,28.2347736359,60,0.036,7.47e-09,186000000.0,92.0,25
208.0,28.26582679752,60,0.036,7.47e-09,186000000.0,92.0,25
209.0,28.29687995914,60,0.036,7.47e-09,186000000.0,92.0,25
210.0,28.32793312076,60,0.036,7.47e-09,186000000.0,92.0,25
211.0,28.35898628238,60,0.036,7.47e-09,186000000.0,92.0,25
212.0,28.390039444,60,0.036,7.47e-09,186000000.0,92.0,25
213.0,28.42109260562,60,0.036,7.47e-09,186000000.0,92.0,25
214.0,28.45214576724,60,0.036,7.47e-09,186000000.0,92.0,25
215.0,28.48319892886,60,0.036,7.47e-09,186000000.0,92.0,25
216.0,28.51425209048,60,0.036,7.47e-09,186000000.0,92.0,25
217.0,28.5453052521,60,0.036,7.47e-09,186000000.0,92.0,25
218.0,28.57605495455,60,0.036,7.47e-09,186000000.0,92.0,25
219.0,28.606804657,60,0.036,7.47e-09,186000000.0,92.0,25
220.0,28.63755435945,60,0.036,7.47e-09,186000000.0,92.0,25
221.0,28.6683040619,60,0.036,7.47e-09,186000000.0,92.0,25
222.0,28.69905376435,60,0.036,7.47e-09,186000000.0,92.0,25
223.0,28.7298034668,60,0.036,7.47e-09,186000000.0,92.0,25
224.0,28.76055316925,60,0.036,7.47e-09,186000000.0,92.0,25
225.0,28.7913028717,60,0.036,7.47e-09,186000000.0,92.0,25
226.0,28.82205257415,60,0.036,7.47e-09,186000000.0,92.0,25
227.0,28.8528022766,60,0.036,7.47e-09,186000000.0,92.0,25
228.0,28.88325119018,60,0.036,7.47e-09,186000000.0,92.0,25
229.0,28.91370010376,60,0.036,7.47e-09,186000000.0,92.0,25
230.0,28.94414901734,60,0.036,7.47e-09,186000000.0,92.0,25
231.0,28.97459793092,60,0.036,7.47e-09,186000000.0,92.0,25
232.0,29.0050468445,60,0.036,7.47e-09,186000000.0,92.0,25
233.0,29.03549575808,60,0.036,7.47e-09,186000000.0,92.0,25
234.0,29.06594467166,60,0.036,7.47e-09,186000000.0,92.0,25
235.0,29.09639358524,60,0.036,7.47e-09,186000000.0,92.0,25
236.0,29.12684249882,60,0.036,7.47e-09,186000000.0,92.0,25
237.0,29.1572914124,60,0.036,7.47e-09,186000000.0,92.0,25
238.0,29.18744277958,60,0.036,7.47e-09,186000000.0,92.0,25
239.0,29.21759414676,60,0.036,7.47e-09,186000000.0,92.0,25
240.0,29.24774551394,60,0.036,7.47e-09,186000000.0,92.0,25
241.0,29.27789688112,60,0.036,7.47e-09,186000000.0,92.0,25
242.0,29.3080482483,60,0.036,7.47e-09,186000000.0,92.0,25
243.0,29.33819961548,60,0.036,7.47e-09,186000000.0,92.0,25
244.0,29.36835098266,60,0.036,7.47e-09,186000000.0,92.0,25
245.0,29.39850234984,60,0.036,7.47e-09,186000000.0,92.0,25
246.0,29.42865371702,60,0.036,7.47e-09,186000000.0,92.0,25
247.0,29.4588050842,60,0.036,7.47e-09,186000000.0,92.0,25
248.0,29.48866176603,60,0.036,7.47e-09,186000000.0,92.0,25
249.0,29.51851844786,60,0.036,7.47e-09,186000000.0,92.0,25
250.0,29.54837512969,60,0.036,7.47e-09,186000000.0,92.0,25
251.0,29.57823181152,60,0.036,7.47e-09,186000000.0,92.0,25
252.0,29.60808849335,60,0.036,7.47e-09,186000000.0,92.0,25
253.0,29.63794517518,60,0.036,7.47e-09,186000000.0,92.0,25
254.0,29.66780185701,60,0.036,7.47e-09,186000000.0,92.0,25
255.0,29.69765853884,60,0.036,7.47e-09,186000000.0,92.0,25
256.0,29.72751522067,60,0.036,7.47e-09,186000000.0,92.0,25
257.0,29.7573719025,60,0.036,7.47e-09,186000000.0,92.0,25
258.0,29.78693656924,60,0.036,7.47e-09,186000000.0,92.0,25
259.0,29.81650123598,60,0.036,7.47e-09,186000000.0,92.0,25
260.0,29.84606590272,60,0.036,7.47e-09,186000000.0,92.0,25
261.0,29.87563056946,60,0.036,7.47e-09,186000000.0,92.0,25
262.0,29.9051952362,60,0.036,7.47e-09,186000000.0,92.0,25
263.0,29.93475990294,60,0.036,7.47e-09,186000000.0,92.0,25
264.0,29.96432456968,60,0.036,7.47e-09,186000000.0,92.0,25
265.0,29.99388923642,60,0.036,7.47e-09,186000000.0,92.0,25
266.0,30.02345390316,60,0.036,7.47e-09,186000000.0,92.0,25
267.0,30.0530185699,60,0.036,7.47e-09,186000000.0,92.0,25
268.0,30.08229427333,60,0.036,7.47e-09,186000000.0,92.0,25
269.0,30.11156997676,60,0.036,7.47e-09,186000000.0,92.0,25
270.0,30.14084568019,60,0.036,7.47e-09,186000000.0,92.0,25
271.0,30.17012138362,60,0.036,7.47e-09,186000000.0,92.0,25
272.0,30.19939708705,60,0.036,7.47e-09,186000000.0,92.0,25
273.0,30.22867279048,60,0.036,7.47e-09,186000000.0,92.0,25
274.0,30.25794849391,60,0.036,7.47e-09,186000000.0,92.0,25
275.0,30.28722419734,60,0.036,7.47e-09,186000000.0,92.0,25
276.0,30.31649990077,60,0.036,7.47e-09,186000000.0,92.0,25
277.0,30.3457756042,60,0.036,7.47e-09,186000000.0,92.0,25
278.0,30.37476501461,60,0.036,7.47e-09,186000000.0,92.0,25
279.0,30.40375442502,60,0.036,7.47e-09,186000000.0,92.0,25
280.0,30.43274383543,60,0.036,7.47e-09,186000000.0,92.0,25
281.0,30.46173324584,60,0.036,7.47e-09,186000000.0,92.0,25
282.0,30.49072265625,60,0.036,7.47e-09,186000000.0,92.0,25
283.0,30.51971206666,60,0.036,7.47e-09,186000000.0,92.0,25
284.0,30.54870147707,60,0.036,7.47e-09,186000000.0,92.0,25
285.0,30.57769088748,60,0.036,7.47e-09,186000000.0,92.0,25
286.0,30.60668029789,60,0.036,7.47e-09,186000000.0,92.0,25
287.0,30.6356697083,60,0.036,7.47e-09,186000000.0,92.0,25
288.0,30.66437587742,60,0.036,7.47e-09,186000000.0,92.0,25
289.0,30.69308204654,60,0.036,7.47e-09,186000000.0,92.0,25
290.0,30.72178821566,60,0.036,7.47e-09,186000000.0,92.0,25
291.0,30.75049438478,60,0.036,7.47e-09,186000000.0,92.0,25
292.0,30.7792005539,60,0.036,7.47e-09,186000000.0,92.0,25
293.0,30.80790672302,60,0.036,7.47e-09,186000000.0,92.0,25
294.0,30.83661289214,60,0.036,7.47e-09,186000000.0,92.0,25
295.0,30.86531906126,60,0.036,7.47e-09,186000000.0,92.0,25
296.0,30.89402523038,60,0.036,7.47e-09,186000000.0,92.0,25
297.0,30.9227313995,60,0.036,7.47e-09,186000000.0,92.0,25
298.0,30.95115680691,60,0.036,7.47e-09,186000000.0,92.0,25
299.0,30.97958221432,60,0.036,7.47e-09,186000000.0,92.0,25
300.0,31.00800762173,60,0.036,7.47e-09,186000000.0,92.0,25
301.0,31.03643302914,60,0.036,7.47e-09,186000000.0,92.0,25
302.0,31.06485843655,60,0.036,7.47e-09,186000000.0,92.0,25
303.0,31.09328384396,60,0.036,7.47e-09,186000000.0,92.0,25
304.0,31.12170925137,60,0.036,7.47e-09,186000000.0,92.0,25
305.0,31.15013465878,60,0.036,7.47e-09,186000000.0,92.0,25
306.0,31.17856006619,60,0.036,7.47e-09,186000000.0,92.0,25
307.0,31.2069854736,60,0.036,7.47e-09,186000000.0,92.0,25
308.0,31.23513317105,60,0.036,7.47e-09,186000000.0,92.0,25
309.0,31.2632808685,60,0.036,7.47e-09,186000000.0,92.0,25
310.0,31.29142856595,60,0.036,7.47e-09,186000000.0,92.0,25
311.0,31.3195762634,60,0.036,7.47e-09,186000000.0,92.0,25
312.0,31.34772396085,60,0.036,7.47e-09,186000000.0,92.0,25
313.0,31.3758716583,60,0.036,7.47e-09,186000000.0,92.0,25
314.0,31.40401935575,60,0.036,7.47e-09,186000000.0,92.0,25
315.0,31.4321670532,60,0.036,7.47e-09,186000000.0,92.0,25
316.0,31.46031475065,60,0.036,7.47e-09,186000000.0,92.0,25
317.0,31.4884624481,60,0.036,7.47e-09,186000000.0,92.0,25
318.0,31.51633472441,60,0.036,7.47e-09,186000000.0,92.0,25
319.0,31.54420700072,60,0.036,7.47e-09,186000000.0,92.0,25
320.0,31.57207927703,60,0.036,7.47e-09,186000000.0,92.0,25
321.0,31.59995155334,60,0.036,7.47e-09,186000000.0,92.0,25
322.0,31.62782382965,60,0.036,7.47e-09,186000000.0,92.0,25
323.0,31.65569610596,60,0.036,7.47e-09,186000000.0,92.0,25
324.0,31.68356838227,60,0.036,7.47e-09,186000000.0,92.0,25
325.0,31.71144065858,60,0.036,7.47e-09,186000000.0,92.0,25
326.0,31.73931293489,60,0.036,7.47e-09,186000000.0,92.0,25
327.0,31.7671852112,60,0.036,7.47e-09,186000000.0,92.0,25
328.0,31.79478530885,60,0.036,7.47e-09,186000000.0,92.0,25
329.0,31.8223854065,60,0.036,7.47e-09,186000000.0,92.0,25
330.0,31.84998550415,60,0.036,7.47e-09,186000000.0,92.0,25
331.0,31.8775856018,60,0.036,7.47e-09,186000000.0,92.0,25
332.0,31.90518569945,60,0.036,7.47e-09,186000000.0,92.0,25
333.0,31.9327857971,60,0.036,7.47e-09,186000000.0,92.0,25
334.0,31.96038589475,60,0.036,7.47e-09,186000000.0,92.0,25
335.0,31.9879859924,60,0.036,7.47e-09,186000000.0,92.0,25
336.0,32.01558609005,60,0.036,7.47e-09,186000000.0,92.0,25
