time,T_int,T_ext_1,Film_Coef,Density,Specific_Heat,Thermal_Conductivity,Radius
1.0,21.9833087921,22.88,0.036,7.77e-09,436000000.0,132.0,15
2.0,21.9701042175,23.76,0.036,7.77e-09,436000000.0,132.0,15
3.0,21.9590854645,24.64,0.036,7.77e-09,436000000.0,132.0,15
4.0,21.95066928865,25.52,0.036,7.77e-09,436000000.0,132.0,15
5.0,21.9422531128,26.4,0.036,7.77e-09,436000000.0,132.0,15
6.0,21.9373984337,27.28,0.036,7.77e-09,436000000.0,132.0,15
7.0,21.9325437546,28.16,0.036,7.77e-09,436000000.0,132.0,15
8.0,21.9276890755,29.04,0.036,7.77e-09,436000000.0,132.0,15
9.0,21.9228343964,29.92,0.036,7.77e-09,436000000.0,132.0,15
10.0,21.9239423275375,30.8,0.036,7.77e-09,436000000.0,132.0,15
11.0,21.925050258675,31.68,0.036,7.77e-09,436000000.0,132.0,15
12.0,21.9261581898125,32.56,0.036,7.77e-09,436000000.0,132.0,15
13.0,21.92726612095,33.44,0.036,7.77e-09,436000000.0,132.0,15
14.0,21.9283740520875,34.32,0.036,7.77e-09,436000000.0,132.0,15
15.0,21.929481983225,35.2,0.036,7.77e-09,436000000.0,132.0,15
16.0,21.9305899143625,36.08,0.036,7.77e-09,436000000.0,132.0,15
17.0,21.9316978455,36.96,0.036,7.77e-09,436000000.0,132.0,15
18.0,21.93991718296,37.84,0.036,7.77e-09,436000000.0,132.0,15
19.0,21.94813652042,38.72,0.036,7.77e-09,436000000.0,132.0,15
20.0,21.95635585788,39.6,0.036,7.77e-09,436000000.0,132.0,15
21.0,21.96457519534,40.48,0.036,7.77e-09,436000000.0,132.0,15
22.0,21.9727945328,41.36,0.036,7.77e-09,436000000.0,132.0,15
23.0,21.98101387026,42.24,0.036,7.77e-09,436000000.0,132.0,15
24.0,21.98923320772,43.12,0.036,7.77e-09,436000000.0,132.0,15
25.0,21.99745254518,44.0,0.036,7.77e-09,436000000.0,132.0,15
26.0,22.00567188264,44.88,0.036,7.77e-09,436000000.0,132.0,15
27.0,22.0138912201,45.76,0.036,7.77e-09,436000000.0,132.0,15
28.0,22.02914524079,46.64,0.036,7.77e-09,436000000.0,132.0,15
29.0,22.04439926148,47.52,0.036,7.77e-09,436000000.0,132.0,15
30.0,22.05965328217,48.4,0.036,7.77e-09,436000000.0,132.0,15
31.0,22.07490730286,49.28,0.036,7.77e-09,436000000.0,132.0,15
32.0,22.09016132355,50.16,0.036,7.77e-09,436000000.0,132.0,15
33.0,22.10541534424,51.04,0.036,7.77e-09,436000000.0,132.0,15
34.0,22.12066936493,51.92,0.036,7.77e-09,436000000.0,132.0,15
35.0,22.13592338562,52.8,0.036,7.77e-09,436000000.0,132.0,15
36.0,22.15117740631,53.68,0.036,7.77e-09,436000000.0,132.0,15
37.0,22.166431427,54.56,0.036,7.77e-09,436000000.0,132.0,15
38.0,22.18869247436,55.44,0.036,7.77e-09,436000000.0,132.0,15
39.0,22.21095352172,56.32,0.036,7.77e-09,436000000.0,132.0,15
40.0,22.23321456908,57.2,0.036,7.77e-09,436000000.0,132.0,15
41.0,22.25547561644,58.08,0.036,7.77e-09,436000000.0,132.0,15
42.0,22.2777366638,58.96,0.036,7.77e-09,436000000.0,132.0,15
43.0,22.29999771116,59.84,0.036,7.77e-09,436000000.0,132.0,15
44.0,22.32225875852,60.72,0.036,7.77e-09,436000000.0,132.0,15
45.0,22.34451980588,61.6,0.036,7.77e-09,436000000.0,132.0,15
46.0,22.36678085324,62.48,0.036,7.77e-09,436000000.0,132.0,15
47.0,22.3890419006,63.36,0.036,7.77e-09,436000000.0,132.0,15
48.0,22.41230163571,64.24,0.036,7.77e-09,436000000.0,132.0,15
49.0,22.43556137082,65.12,0.036,7.77e-09,436000000.0,132.0,15
50.0,22.45882110593,66.0,0.036,7.77e-09,436000000.0,132.0,15
51.0,22.48208084104,62.94,0.036,7.77e-09,436000000.0,132.0,15
52.0,22.50534057615,62.88,0.036,7.77e-09,436000000.0,132.0,15
53.0,22.52860031126,62.82,0.036,7.77e-09,436000000.0,132.0,15
54.0,22.55186004637,62.76,0.036,7.77e-09,436000000.0,132.0,15
55.0,22.57511978148,62.7,0.036,7.77e-09,436000000.0,132.0,15
56.0,22.59837951659,62.64,0.036,7.77e-09,436000000.0,132.0,15
57.0,22.6216392517,62.58,0.036,7.77e-09,436000000.0,132.0,15
58.0,22.64383544921,62.52,0.036,7.77e-09,436000000.0,132.0,15
59.0,22.66603164672,62.46,0.036,7.77e-09,436000000.0,132.0,15
60.0,22.68822784423,62.4,0.036,7.77e-09,436000000.0,132.0,15
61.0,22.71042404174,62.34,0.036,7.77e-09,436000000.0,132.0,15
62.0,22.73262023925,62.28,0.036,7.77e-09,436000000.0,132.0,15
63.0,22.75481643676,62.22,0.036,7.77e-09,436000000.0,132.0,15
64.0,22.77701263427,62.16,0.036,7.77e-09,436000000.0,132.0,15
65.0,22.79920883178,62.1,0.036,7.77e-09,436000000.0,132.0,15
66.0,22.82140502929,62.04,0.036,7.77e-09,436000000.0,132.0,15
67.0,22.8436012268,61.98,0.036,7.77e-09,436000000.0,132.0,15
68.0,22.86502151489,61.92,0.036,7.77e-09,436000000.0,132.0,15
69.0,22.88644180298,61.86,0.036,7.77e-09,436000000.0,132.0,15
70.0,22.90786209107,61.8,0.036,7.77e-09,436000000.0,132.0,15
71.0,22.92928237916,61.74,0.036,7.77e-09,436000000.0,132.0,15
72.0,22.95070266725,61.68,0.036,7.77e-09,436000000.0,132.0,15
73.0,22.97212295534,61.62,0.036,7.77e-09,436000000.0,132.0,15
74.0,22.99354324343,61.56,0.036,7.77e-09,436000000.0,132.0,15
75.0,23.01496353152,61.5,0.036,7.77e-09,436000000.0,132.0,15
76.0,23.03638381961,61.44,0.036,7.77e-09,436000000.0,132.0,15
77.0,23.0578041077,61.38,0.036,7.77e-09,436000000.0,132.0,15
78.0,23.07848415378,61.32,0.036,7.77e-09,436000000.0,132.0,15
79.0,23.09916419986,61.26,0.036,7.77e-09,436000000.0,132.0,15
80.0,23.11984424594,61.2,0.036,7.77e-09,436000000.0,132.0,15
81.0,23.14052429202,61.14,0.036,7.77e-09,436000000.0,132.0,15
82.0,23.1612043381,61.08,0.036,7.77e-09,436000000.0,132.0,15
83.0,23.18188438418,61.02,0.036,7.77e-09,436000000.0,132.0,15
84.0,23.20256443026,60.96,0.036,7.77e-09,436000000.0,132.0,15
85.0,23.22324447634,60.9,0.036,7.77e-09,436000000.0,132.0,15
86.0,23.24392452242,60.84,0.036,7.77e-09,436000000.0,132.0,15
87.0,23.2646045685,60.78,0.036,7.77e-09,436000000.0,132.0,15
88.0,23.28454475405,60.72,0.036,7.77e-09,436000000.0,132.0,15
89.0,23.3044849396,60.66,0.036,7.77e-09,436000000.0,132.0,15
90.0,23.32442512515,60.6,0.036,7.77e-09,436000000.0,132.0,15
91.0,23.3443653107,60.54,0.036,7.77e-09,436000000.0,132.0,15
92.0,23.36430549625,60.48,0.036,7.77e-09,436000000.0,132.0,15
93.0,23.3842456818,60.42,0.036,7.77e-09,436000000.0,132.0,15
94.0,23.40418586735,60.36,0.036,7.77e-09,436000000.0,132.0,15
95.0,23.4241260529,60.3,0.036,7.77e-09,436000000.0,132.0,15
96.0,23.44406623845,60.24,0.036,7.77e-09,436000000.0,132.0,15
97.0,23.464006424,60.18,0.036,7.77e-09,436000000.0,132.0,15
98.0,23.48370285039,60.12,0.036,7.77e-09,436000000.0,132.0,15
99.0,23.50339927678,60.06,0.036,7.77e-09,436000000.0,132.0,15
100.0,23.52309570317,60.0,0.036,7.77e-09,436000000.0,132.0,15
101.0,23.54279212956,60,0.036,7.77e-09,436000000.0,132.0,15
102.0,23.56248855595,60,0.036,7.77e-09,436000000.0,132.0,15
103.0,23.58218498234,60,0.036,7.77e-09,436000000.0,132.0,15
104.0,23.60188140873,60,0.036,7.77e-09,436000000.0,132.0,15
105.0,23.62157783512,60,0.036,7.77e-09,436000000.0,132.0,15
106.0,23.64127426151,60,0.036,7.77e-09,436000000.0,132.0,15
107.0,23.6609706879,60,0.036,7.77e-09,436000000.0,132.0,15
108.0,23.68059158328,60,0.036,7.77e-09,436000000.0,132.0,15
109.0,23.70021247866,60,0.036,7.77e-09,436000000.0,132.0,15
110.0,23.71983337404,60,0.036,7.77e-09,436000000.0,132.0,15
111.0,23.73945426942,60,0.036,7.77e-09,436000000.0,132.0,15
112.0,23.7590751648,60,0.036,7.77e-09,436000000.0,132.0,15
113.0,23.77869606018,60,0.036,7.77e-09,436000000.0,132.0,15
114.0,23.79831695556,60,0.036,7.77e-09,436000000.0,132.0,15
115.0,23.81793785094,60,0.036,7.77e-09,436000000.0,132.0,15
116.0,23.83755874632,60,0.036,7.77e-09,436000000.0,132.0,15
117.0,23.8571796417,60,0.036,7.77e-09,436000000.0,132.0,15
118.0,23.87669925688,60,0.036,7.77e-09,436000000.0,132.0,15
119.0,23.89621887206,60,0.036,7.77e-09,436000000.0,132.0,15
120.0,23.91573848724,60,0.036,7.77e-09,436000000.0,132.0,15
121.0,23.93525810242,60,0.036,7.77e-09,436000000.0,132.0,15
122.0,23.9547777176,60,0.036,7.77e-09,436000000.0,132.0,15
123.0,23.97429733278,60,0.036,7.77e-09,436000000.0,132.0,15
124.0,23.99381694796,60,0.036,7.77e-09,436000000.0,132.0,15
125.0,24.01333656314,60,0.036,7.77e-09,436000000.0,132.0,15
126.0,24.03285617832,60,0.036,7.77e-09,436000000.0,132.0,15
127.0,24.0523757935,60,0.036,7.77e-09,436000000.0,132.0,15
128.0,24.07179031376,60,0.036,7.77e-09,436000000.0,132.0,15
129.0,24.09120483402,60,0.036,7.77e-09,436000000.0,132.0,15
130.0,24.11061935428,60,0.036,7.77e-09,436000000.0,132.0,15
131.0,24.13003387454,60,0.036,7.77e-09,436000000.0,132.0,15
132.0,24.1494483948,60,0.036,7.77e-09,436000000.0,132.0,15
133.0,24.16886291506,60,0.036,7.77e-09,436000000.0,132.0,15
134.0,24.18827743532,60,0.036,7.77e-09,436000000.0,132.0,15
135.0,24.20769195558,60,0.036,7.77e-09,436000000.0,132.0,15
136.0,24.22710647584,60,0.036,7.77e-09,436000000.0,132.0,15
137.0,24.2465209961,60,0.036,7.77e-09,436000000.0,132.0,15
138.0,24.26583042145,60,0.036,7.77e-09,436000000.0,132.0,15
139.0,24.2851398468,60,0.036,7.77e-09,436000000.0,132.0,15
140.0,24.30444927215,60,0.036,7.77e-09,436000000.0,132.0,15
141.0,24.3237586975,60,0.036,7.77e-09,436000000.0,132.0,15
142.0,24.34306812285,60,0.036,7.77e-09,436000000.0,132.0,15
143.0,24.3623775482,60,0.036,7.77e-09,436000000.0,132.0,15
144.0,24.38168697355,60,0.036,7.77e-09,436000000.0,132.0,15
145.0,24.4009963989,60,0.036,7.77e-09,436000000.0,132.0,15
146.0,24.42030582425,60,0.036,7.77e-09,436000000.0,132.0,15
147.0,24.4396152496,60,0.036,7.77e-09,436000000.0,132.0,15
148.0,24.45882015225,60,0.036,7.77e-09,436000000.0,132.0,15
149.0,24.4780250549,60,0.036,7.77e-09,436000000.0,132.0,15
150.0,24.49722995755,60,0.036,7.77e-09,436000000.0,132.0,15
151.0,24.5164348602,60,0.036,7.77e-09,436000000.0,132.0,15
152.0,24.53563976285,60,0.036,7.77e-09,436000000.0,132.0,15
153.0,24.5548446655,60,0.036,7.77e-09,436000000.0,132.0,15
154.0,24.57404956815,60,0.036,7.77e-09,436000000.0,132.0,15
155.0,24.5932544708,60,0.036,7.77e-09,436000000.0,132.0,15
156.0,24.61245937345,60,0.036,7.77e-09,436000000.0,132.0,15
157.0,24.6316642761,60,0.036,7.77e-09,436000000.0,132.0,15
158.0,24.65076522825,60,0.036,7.77e-09,436000000.0,132.0,15
159.0,24.6698661804,60,0.036,7.77e-09,436000000.0,132.0,15
160.0,24.68896713255,60,0.036,7.77e-09,436000000.0,132.0,15
161.0,24.7080680847,60,0.036,7.77e-09,436000000.0,132.0,15
162.0,24.72716903685,60,0.036,7.77e-09,436000000.0,132.0,15
163.0,24.746269989,60,0.036,7.77e-09,436000000.0,132.0,15
164.0,24.76537094115,60,0.036,7.77e-09,436000000.0,132.0,15
165.0,24.7844718933,60,0.036,7.77e-09,436000000.0,132.0,15
166.0,24.80357284545,60,0.036,7.77e-09,436000000.0,132.0,15
167.0,24.8226737976,60,0.036,7.77e-09,436000000.0,132.0,15
168.0,24.84167137145,60,0.036,7.77e-09,436000000.0,132.0,15
169.0,24.8606689453,60,0.036,7.77e-09,436000000.0,132.0,15
170.0,24.87966651915,60,0.036,7.77e-09,436000000.0,132.0,15
171.0,24.898664093,60,0.036,7.77e-09,436000000.0,132.0,15
172.0,24.91766166685,60,0.036,7.77e-09,436000000.0,132.0,15
173.0,24.9366592407,60,0.036,7.77e-09,436000000.0,132.0,15
174.0,24.95565681455,60,0.036,7.77e-09,436000000.0,132.0,15
175.0,24.9746543884,60,0.036,7.77e-09,436000000.0,132.0,15
176.0,24.99365196225,60,0.036,7.77e-09,436000000.0,132.0,15
177.0,25.0126495361,60,0.036,7.77e-09,436000000.0,132.0,15
178.0,25.0315444946,60,0.036,7.77e-09,436000000.0,132.0,15
179.0,25.0504394531,60,0.036,7.77e-09,436000000.0,132.0,15
180.0,25.0693344116,60,0.036,7.77e-09,436000000.0,132.0,15
181.0,25.0882293701,60,0.036,7.77e-09,436000000.0,132.0,15
182.0,25.1071243286,60,0.036,7.77e-09,436000000.0,132.0,15
183.0,25.1260192871,60,0.036,7.77e-09,436000000.0,132.0,15
184.0,25.1449142456,60,0.036,7.77e-09,436000000.0,132.0,15
185.0,25.1638092041,60,0.036,7.77e-09,436000000.0,132.0,15
186.0,25.1827041626,60,0.036,7.77e-09,436000000.0,132.0,15
187.0,25.2015991211,60,0.036,7.77e-09,436000000.0,132.0,15
188.0,25.22039184571,60,0.036,7.77e-09,436000000.0,132.0,15
189.0,25.23918457032,60,0.036,7.77e-09,436000000.0,132.0,15
190.0,25.25797729493,60,0.036,7.77e-09,436000000.0,132.0,15
191.0,25.27677001954,60,0.036,7.77e-09,436000000.0,132.0,15
192.0,25.29556274415,60,0.036,7.77e-09,436000000.0,132.0,15
193.0,25.31435546876,60,0.036,7.77e-09,436000000.0,132.0,15
194.0,25.33314819337,60,0.036,7.77e-09,436000000.0,132.0,15
195.0,25.35194091798,60,0.036,7.77e-09,436000000.0,132.0,15
196.0,25.37073364259,60,0.036,7.77e-09,436000000.0,132.0,15
197.0,25.3895263672,60,0.036,7.77e-09,436000000.0,132.0,15
198.0,25.4082178116,60,0.036,7.77e-09,436000000.0,132.0,15
199.0,25.426909256,60,0.036,7.77e-09,436000000.0,132.0,15
200.0,25.4456007004,60,0.036,7.77e-09,436000000.0,132.0,15
201.0,25.4642921448,60,0.036,7.77e-09,436000000.0,132.0,15
202.0,25.4829835892,60,0.036,7.77e-09,436000000.0,132.0,15
203.0,25.5016750336,60,0.036,7.77e-09,436000000.0,132.0,15
204.0,25.520366478,60,0.036,7.77e-09,436000000.0,132.0,15
205.0,25.5390579224,60,0.036,7.77e-09,436000000.0,132.0,15
206.0,25.5577493668,60,0.036,7.77e-09,436000000.0,132.0,15
207.0,25.5764408112,60,0.036,7.77e-09,436000000.0,132.0,15
208.0,25.59503116612,60,0.036,7.77e-09,436000000.0,132.0,15
209.0,25.61362152104,60,0.036,7.77e-09,436000000.0,132.0,15
210.0,25.63221187596,60,0.036,7.77e-09,436000000.0,132.0,15
211.0,25.65080223088,60,0.036,7.77e-09,436000000.0,132.0,15
212.0,25.6693925858,60,0.036,7.77e-09,436000000.0,132.0,15
213.0,25.68798294072,60,0.036,7.77e-09,436000000.0,132.0,15
214.0,25.70657329564,60,0.036,7.77e-09,436000000.0,132.0,15
215.0,25.72516365056,60,0.036,7.77e-09,436000000.0,132.0,15
216.0,25.74375400548,60,0.036,7.77e-09,436000000.0,132.0,15
217.0,25.7623443604,60,0.036,7.77e-09,436000000.0,132.0,15
218.0,25.78083419804,60,0.036,7.77e-09,436000000.0,132.0,15
219.0,25.79932403568,60,0.036,7.77e-09,436000000.0,132.0,15
220.0,25.81781387332,60,0.036,7.77e-09,436000000.0,132.0,15
221.0,25.83630371096,60,0.036,7.77e-09,436000000.0,132.0,15
222.0,25.8547935486,60,0.036,7.77e-09,436000000.0,132.0,15
223.0,25.87328338624,60,0.036,7.77e-09,436000000.0,132.0,15
224.0,25.89177322388,60,0.036,7.77e-09,436000000.0,132.0,15
225.0,25.91026306152,60,0.036,7.77e-09,436000000.0,132.0,15
226.0,25.92875289916,60,0.036,7.77e-09,436000000.0,132.0,15
227.0,25.9472427368,60,0.036,7.77e-09,436000000.0,132.0,15
228.0,25.96563301085,60,0.036,7.77e-09,436000000.0,132.0,15
229.0,25.9840232849,60,0.036,7.77e-09,436000000.0,132.0,15
230.0,26.00241355895,60,0.036,7.77e-09,436000000.0,132.0,15
231.0,26.020803833,60,0.036,7.77e-09,436000000.0,132.0,15
232.0,26.03919410705,60,0.036,7.77e-09,436000000.0,132.0,15
233.0,26.0575843811,60,0.036,7.77e-09,436000000.0,132.0,15
234.0,26.07597465515,60,0.036,7.77e-09,436000000.0,132.0,15
235.0,26.0943649292,60,0.036,7.77e-09,436000000.0,132.0,15
236.0,26.11275520325,60,0.036,7.77e-09,436000000.0,132.0,15
237.0,26.1311454773,60,0.036,7.77e-09,436000000.0,132.0,15
238.0,26.14943618775,60,0.036,7.77e-09,436000000.0,132.0,15
239.0,26.1677268982,60,0.036,7.77e-09,436000000.0,132.0,15
240.0,26.18601760865,60,0.036,7.77e-09,436000000.0,132.0,15
241.0,26.2043083191,60,0.036,7.77e-09,436000000.0,132.0,15
242.0,26.22259902955,60,0.036,7.77e-09,436000000.0,132.0,15
243.0,26.24088974,60,0.036,7.77e-09,436000000.0,132.0,15
244.0,26.25918045045,60,0.036,7.77e-09,436000000.0,132.0,15
245.0,26.2774711609,60,0.036,7.77e-09,436000000.0,132.0,15
246.0,26.29576187135,60,0.036,7.77e-09,436000000.0,132.0,15
247.0,26.3140525818,60,0.036,7.77e-09,436000000.0,132.0,15
248.0,26.33224468232,60,0.036,7.77e-09,436000000.0,132.0,15
249.0,26.35043678284,60,0.036,7.77e-09,436000000.0,132.0,15
250.0,26.36862888336,60,0.036,7.77e-09,436000000.0,132.0,15
251.0,26.38682098388,60,0.036,7.77e-09,436000000.0,132.0,15
252.0,26.4050130844,60,0.036,7.77e-09,436000000.0,132.0,15
253.0,26.42320518492,60,0.036,7.77e-09,436000000.0,132.0,15
254.0,26.44139728544,60,0.036,7.77e-09,436000000.0,132.0,15
255.0,26.45958938596,60,0.036,7.77e-09,436000000.0,132.0,15
256.0,26.47778148648,60,0.036,7.77e-09,436000000.0,132.0,15
257.0,26.495973587,60,0.036,7.77e-09,436000000.0,132.0,15
258.0,26.51406726834,60,0.036,7.77e-09,436000000.0,132.0,15
259.0,26.53216094968,60,0.036,7.77e-09,436000000.0,132.0,15
260.0,26.55025463102,60,0.036,7.77e-09,436000000.0,132.0,15
261.0,26.56834831236,60,0.036,7.77e-09,436000000.0,132.0,15
262.0,26.5864419937,60,0.036,7.77e-09,436000000.0,132.0,15
263.0,26.60453567504,60,0.036,7.77e-09,436000000.0,132.0,15
264.0,26.62262935638,60,0.036,7.77e-09,436000000.0,132.0,15
265.0,26.64072303772,60,0.036,7.77e-09,436000000.0,132.0,15
266.0,26.65881671906,60,0.036,7.77e-09,436000000.0,132.0,15
267.0,26.6769104004,60,0.036,7.77e-09,436000000.0,132.0,15
268.0,26.69490642548,60,0.036,7.77e-09,436000000.0,132.0,15
269.0,26.71290245056,60,0.036,7.77e-09,436000000.0,132.0,15
270.0,26.73089847564,60,0.036,7.77e-09,436000000.0,132.0,15
271.0,26.74889450072,60,0.036,7.77e-09,436000000.0,132.0,15
272.0,26.7668905258,60,0.036,7.77e-09,436000000.0,132.0,15
273.0,26.78488655088,60,0.036,7.77e-09,436000000.0,132.0,15
274.0,26.80288257596,60,0.036,7.77e-09,436000000.0,132.0,15
275.0,26.82087860104,60,0.036,7.77e-09,436000000.0,132.0,15
276.0,26.83887462612,60,0.036,7.77e-09,436000000.0,132.0,15
277.0,26.8568706512,60,0.036,7.77e-09,436000000.0,132.0,15
278.0,26.87476959224,60,0.036,7.77e-09,436000000.0,132.0,15
279.0,26.89266853328,60,0.036,7.77e-09,436000000.0,132.0,15
280.0,26.91056747432,60,0.036,7.77e-09,436000000.0,132.0,15
281.0,26.92846641536,60,0.036,7.77e-09,436000000.0,132.0,15
282.0,26.9463653564,60,0.036,7.77e-09,436000000.0,132.0,15
283.0,26.96426429744,60,0.036,7.77e-09,436000000.0,132.0,15
284.0,26.98216323848,60,0.036,7.77e-09,436000000.0,132.0,15
285.0,27.00006217952,60,0.036,7.77e-09,436000000.0,132.0,15
286.0,27.01796112056,60,0.036,7.77e-09,436000000.0,132.0,15
287.0,27.0358600616,60,0.036,7.77e-09,436000000.0,132.0,15
288.0,27.05366210933,60,0.036,7.77e-09,436000000.0,132.0,15
289.0,27.07146415706,60,0.036,7.77e-09,436000000.0,132.0,15
290.0,27.08926620479,60,0.036,7.77e-09,436000000.0,132.0,15
291.0,27.10706825252,60,0.036,7.77e-09,436000000.0,132.0,15
292.0,27.12487030025,60,0.036,7.77e-09,436000000.0,132.0,15
293.0,27.14267234798,60,0.036,7.77e-09,436000000.0,132.0,15
294.0,27.16047439571,60,0.036,7.77e-09,436000000.0,132.0,15
295.0,27.17827644344,60,0.036,7.77e-09,436000000.0,132.0,15
296.0,27.19607849117,60,0.036,7.77e-09,436000000.0,132.0,15
297.0,27.2138805389,60,0.036,7.77e-09,436000000.0,132.0,15
298.0,27.231586647,60,0.036,7.77e-09,436000000.0,132.0,15
299.0,27.2492927551,60,0.036,7.77e-09,436000000.0,132.0,15
300.0,27.2669988632,60,0.036,7.77e-09,436000000.0,132.0,15
301.0,27.2847049713,60,0.036,7.77e-09,436000000.0,132.0,15
302.0,27.3024110794,60,0.036,7.77e-09,436000000.0,132.0,15
303.0,27.3201171875,60,0.036,7.77e-09,436000000.0,132.0,15
304.0,27.3378232956,60,0.036,7.77e-09,436000000.0,132.0,15
305.0,27.3555294037,60,0.036,7.77e-09,436000000.0,132.0,15
306.0,27.3732355118,60,0.036,7.77e-09,436000000.0,132.0,15
307.0,27.3909416199,60,0.036,7.77e-09,436000000.0,132.0,15
308.0,27.40855216982,60,0.036,7.77e-09,436000000.0,132.0,15
309.0,27.42616271974,60,0.036,7.77e-09,436000000.0,132.0,15
310.0,27.44377326966,60,0.036,7.77e-09,436000000.0,132.0,15
311.0,27.46138381958,60,0.036,7.77e-09,436000000.0,132.0,15
312.0,27.4789943695,60,0.036,7.77e-09,436000000.0,132.0,15
313.0,27.49660491942,60,0.036,7.77e-09,436000000.0,132.0,15
314.0,27.51421546934,60,0.036,7.77e-09,436000000.0,132.0,15
315.0,27.53182601926,60,0.036,7.77e-09,436000000.0,132.0,15
316.0,27.54943656918,60,0.036,7.77e-09,436000000.0,132.0,15
317.0,27.5670471191,60,0.036,7.77e-09,436000000.0,132.0,15
318.0,27.5845623016,60,0.036,7.77e-09,436000000.0,132.0,15
319.0,27.6020774841,60,0.036,7.77e-09,436000000.0,132.0,15
320.0,27.6195926666,60,0.036,7.77e-09,436000000.0,132.0,15
321.0,27.6371078491,60,0.036,7.77e-09,436000000.0,132.0,15
322.0,27.6546230316,60,0.036,7.77e-09,436000000.0,132.0,15
323.0,27.6721382141,60,0.036,7.77e-09,436000000.0,132.0,15
324.0,27.6896533966,60,0.036,7.77e-09,436000000.0,132.0,15
325.0,27.7071685791,60,0.036,7.77e-09,436000000.0,132.0,15
326.0,27.7246837616,60,0.036,7.77e-09,436000000.0,132.0,15
327.0,27.7421989441,60,0.036,7.77e-09,436000000.0,132.0,15
328.0,27.75961971284,60,0.036,7.77e-09,436000000.0,132.0,15
329.0,27.77704048158,60,0.036,7.77e-09,436000000.0,132.0,15
330.0,27.79446125032,60,0.036,7.77e-09,436000000.0,132.0,15
331.0,27.81188201906,60,0.036,7.77e-09,436000000.0,132.0,15
