time,T_int,T_ext_1,Film_Coef,Density,Specific_Heat,Thermal_Conductivity,Radius
1.0,21.9888153076,22.88,0.036,7.87e-09,786000000.0,152.0,15
2.0,21.9798469543,23.76,0.036,7.87e-09,786000000.0,152.0,15
3.0,21.9723834991,24.64,0.036,7.87e-09,786000000.0,152.0,15
4.0,21.96677970885,25.52,0.036,7.87e-09,786000000.0,152.0,15
5.0,21.9611759186,26.4,0.036,7.87e-09,786000000.0,152.0,15
6.0,21.958049774175,27.28,0.036,7.87e-09,786000000.0,152.0,15
7.0,21.95492362975,28.16,0.036,7.87e-09,786000000.0,152.0,15
8.0,21.951797485325,29.04,0.036,7.87e-09,786000000.0,152.0,15
9.0,21.9486713409,29.92,0.036,7.87e-09,786000000.0,152.0,15
10.0,21.9495155811,30.8,0.036,7.87e-09,786000000.0,152.0,15
11.0,21.9503598213,31.68,0.036,7.87e-09,786000000.0,152.0,15
12.0,21.9512040615,32.56,0.036,7.87e-09,786000000.0,152.0,15
13.0,21.9520483017,33.44,0.036,7.87e-09,786000000.0,152.0,15
14.0,21.9528925419,34.32,0.036,7.87e-09,786000000.0,152.0,15
15.0,21.9537367821,35.2,0.036,7.87e-09,786000000.0,152.0,15
16.0,21.9545810223,36.08,0.036,7.87e-09,786000000.0,152.0,15
17.0,21.9554252625,36.96,0.036,7.87e-09,786000000.0,152.0,15
18.0,21.96089935307,37.84,0.036,7.87e-09,786000000.0,152.0,15
19.0,21.96637344364,38.72,0.036,7.87e-09,786000000.0,152.0,15
20.0,21.97184753421,39.6,0.036,7.87e-09,786000000.0,152.0,15
21.0,21.97732162478,40.48,0.036,7.87e-09,786000000.0,152.0,15
22.0,21.98279571535,41.36,0.036,7.87e-09,786000000.0,152.0,15
23.0,21.98826980592,42.24,0.036,7.87e-09,786000000.0,152.0,15
24.0,21.99374389649,43.12,0.036,7.87e-09,786000000.0,152.0,15
25.0,21.99921798706,44.0,0.036,7.87e-09,786000000.0,152.0,15
26.0,22.00469207763,44.88,0.036,7.87e-09,786000000.0,152.0,15
27.0,22.0101661682,45.76,0.036,7.87e-09,786000000.0,152.0,15
28.0,22.02018623351,46.64,0.036,7.87e-09,786000000.0,152.0,15
29.0,22.03020629882,47.52,0.036,7.87e-09,786000000.0,152.0,15
30.0,22.04022636413,48.4,0.036,7.87e-09,786000000.0,152.0,15
31.0,22.05024642944,49.28,0.036,7.87e-09,786000000.0,152.0,15
32.0,22.06026649475,50.16,0.036,7.87e-09,786000000.0,152.0,15
33.0,22.07028656006,51.04,0.036,7.87e-09,786000000.0,152.0,15
34.0,22.08030662537,51.92,0.036,7.87e-09,786000000.0,152.0,15
35.0,22.09032669068,52.8,0.036,7.87e-09,786000000.0,152.0,15
36.0,22.10034675599,53.68,0.036,7.87e-09,786000000.0,152.0,15
37.0,22.1103668213,54.56,0.036,7.87e-09,786000000.0,152.0,15
38.0,22.12490940095,55.44,0.036,7.87e-09,786000000.0,152.0,15
39.0,22.1394519806,56.32,0.036,7.87e-09,786000000.0,152.0,15
40.0,22.15399456025,57.2,0.036,7.87e-09,786000000.0,152.0,15
41.0,22.1685371399,58.08,0.036,7.87e-09,786000000.0,152.0,15
42.0,22.18307971955,58.96,0.036,7.87e-09,786000000.0,152.0,15
43.0,22.1976222992,59.84,0.036,7.87e-09,786000000.0,152.0,15
44.0,22.21216487885,60.72,0.036,7.87e-09,786000000.0,152.0,15
45.0,22.2267074585,61.6,0.036,7.87e-09,786000000.0,152.0,15
46.0,22.24125003815,62.48,0.036,7.87e-09,786000000.0,152.0,15
47.0,22.2557926178,63.36,0.036,7.87e-09,786000000.0,152.0,15
48.0,22.27088871002,64.24,0.036,7.87e-09,786000000.0,152.0,15
49.0,22.28598480224,65.12,0.036,7.87e-09,786000000.0,152.0,15
50.0,22.30108089446,66.0,0.036,7.87e-09,786000000.0,152.0,15
51.0,22.31617698668,62.94,0.036,7.87e-09,786000000.0,152.0,15
52.0,22.3312730789,62.88,0.036,7.87e-09,786000000.0,152.0,15
53.0,22.34636917112,62.82,0.036,7.87e-09,786000000.0,152.0,15
54.0,22.36146526334,62.76,0.036,7.87e-09,786000000.0,152.0,15
55.0,22.37656135556,62.7,0.036,7.87e-09,786000000.0,152.0,15
56.0,22.39165744778,62.64,0.036,7.87e-09,786000000.0,152.0,15
57.0,22.40675354,62.58,0.036,7.87e-09,786000000.0,152.0,15
58.0,22.42110710141,62.52,0.036,7.87e-09,786000000.0,152.0,15
59.0,22.43546066282,62.46,0.036,7.87e-09,786000000.0,152.0,15
60.0,22.44981422423,62.4,0.036,7.87e-09,786000000.0,152.0,15
61.0,22.46416778564,62.34,0.036,7.87e-09,786000000.0,152.0,15
62.0,22.47852134705,62.28,0.036,7.87e-09,786000000.0,152.0,15
63.0,22.49287490846,62.22,0.036,7.87e-09,786000000.0,152.0,15
64.0,22.50722846987,62.16,0.036,7.87e-09,786000000.0,152.0,15
65.0,22.52158203128,62.1,0.036,7.87e-09,786000000.0,152.0,15
66.0,22.53593559269,62.04,0.036,7.87e-09,786000000.0,152.0,15
67.0,22.5502891541,61.98,0.036,7.87e-09,786000000.0,152.0,15
68.0,22.56414623265,61.92,0.036,7.87e-09,786000000.0,152.0,15
69.0,22.5780033112,61.86,0.036,7.87e-09,786000000.0,152.0,15
70.0,22.59186038975,61.8,0.036,7.87e-09,786000000.0,152.0,15
71.0,22.6057174683,61.74,0.036,7.87e-09,786000000.0,152.0,15
72.0,22.61957454685,61.68,0.036,7.87e-09,786000000.0,152.0,15
73.0,22.6334316254,61.62,0.036,7.87e-09,786000000.0,152.0,15
74.0,22.64728870395,61.56,0.036,7.87e-09,786000000.0,152.0,15
75.0,22.6611457825,61.5,0.036,7.87e-09,786000000.0,152.0,15
76.0,22.67500286105,61.44,0.036,7.87e-09,786000000.0,152.0,15
77.0,22.6888599396,61.38,0.036,7.87e-09,786000000.0,152.0,15
78.0,22.70226440432,61.32,0.036,7.87e-09,786000000.0,152.0,15
79.0,22.71566886904,61.26,0.036,7.87e-09,786000000.0,152.0,15
80.0,22.72907333376,61.2,0.036,7.87e-09,786000000.0,152.0,15
81.0,22.74247779848,61.14,0.036,7.87e-09,786000000.0,152.0,15
82.0,22.7558822632,61.08,0.036,7.87e-09,786000000.0,152.0,15
83.0,22.76928672792,61.02,0.036,7.87e-09,786000000.0,152.0,15
84.0,22.78269119264,60.96,0.036,7.87e-09,786000000.0,152.0,15
85.0,22.79609565736,60.9,0.036,7.87e-09,786000000.0,152.0,15
86.0,22.80950012208,60.84,0.036,7.87e-09,786000000.0,152.0,15
87.0,22.8229045868,60.78,0.036,7.87e-09,786000000.0,152.0,15
88.0,22.835861969,60.72,0.036,7.87e-09,786000000.0,152.0,15
89.0,22.8488193512,60.66,0.036,7.87e-09,786000000.0,152.0,15
90.0,22.8617767334,60.6,0.036,7.87e-09,786000000.0,152.0,15
91.0,22.8747341156,60.54,0.036,7.87e-09,786000000.0,152.0,15
92.0,22.8876914978,60.48,0.036,7.87e-09,786000000.0,152.0,15
93.0,22.90064888,60.42,0.036,7.87e-09,786000000.0,152.0,15
94.0,22.9136062622,60.36,0.036,7.87e-09,786000000.0,152.0,15
95.0,22.9265636444,60.3,0.036,7.87e-09,786000000.0,152.0,15
96.0,22.9395210266,60.24,0.036,7.87e-09,786000000.0,152.0,15
97.0,22.9524784088,60.18,0.036,7.87e-09,786000000.0,152.0,15
98.0,22.96531734465,60.12,0.036,7.87e-09,786000000.0,152.0,15
99.0,22.9781562805,60.06,0.036,7.87e-09,786000000.0,152.0,15
100.0,22.99099521635,60.0,0.036,7.87e-09,786000000.0,152.0,15
101.0,23.0038341522,60,0.036,7.87e-09,786000000.0,152.0,15
102.0,23.01667308805,60,0.036,7.87e-09,786000000.0,152.0,15
103.0,23.0295120239,60,0.036,7.87e-09,786000000.0,152.0,15
104.0,23.04235095975,60,0.036,7.87e-09,786000000.0,152.0,15
105.0,23.0551898956,60,0.036,7.87e-09,786000000.0,152.0,15
106.0,23.06802883145,60,0.036,7.87e-09,786000000.0,152.0,15
107.0,23.0808677673,60,0.036,7.87e-09,786000000.0,152.0,15
108.0,23.09369277951,60,0.036,7.87e-09,786000000.0,152.0,15
109.0,23.10651779172,60,0.036,7.87e-09,786000000.0,152.0,15
110.0,23.11934280393,60,0.036,7.87e-09,786000000.0,152.0,15
111.0,23.13216781614,60,0.036,7.87e-09,786000000.0,152.0,15
112.0,23.14499282835,60,0.036,7.87e-09,786000000.0,152.0,15
113.0,23.15781784056,60,0.036,7.87e-09,786000000.0,152.0,15
114.0,23.17064285277,60,0.036,7.87e-09,786000000.0,152.0,15
115.0,23.18346786498,60,0.036,7.87e-09,786000000.0,152.0,15
116.0,23.19629287719,60,0.036,7.87e-09,786000000.0,152.0,15
117.0,23.2091178894,60,0.036,7.87e-09,786000000.0,152.0,15
118.0,23.22190647125,60,0.036,7.87e-09,786000000.0,152.0,15
119.0,23.2346950531,60,0.036,7.87e-09,786000000.0,152.0,15
120.0,23.24748363495,60,0.036,7.87e-09,786000000.0,152.0,15
121.0,23.2602722168,60,0.036,7.87e-09,786000000.0,152.0,15
122.0,23.27306079865,60,0.036,7.87e-09,786000000.0,152.0,15
123.0,23.2858493805,60,0.036,7.87e-09,786000000.0,152.0,15
124.0,23.29863796235,60,0.036,7.87e-09,786000000.0,152.0,15
125.0,23.3114265442,60,0.036,7.87e-09,786000000.0,152.0,15
126.0,23.32421512605,60,0.036,7.87e-09,786000000.0,152.0,15
127.0,23.3370037079,60,0.036,7.87e-09,786000000.0,152.0,15
128.0,23.34975051881,60,0.036,7.87e-09,786000000.0,152.0,15
129.0,23.36249732972,60,0.036,7.87e-09,786000000.0,152.0,15
130.0,23.37524414063,60,0.036,7.87e-09,786000000.0,152.0,15
131.0,23.38799095154,60,0.036,7.87e-09,786000000.0,152.0,15
132.0,23.40073776245,60,0.036,7.87e-09,786000000.0,152.0,15
133.0,23.41348457336,60,0.036,7.87e-09,786000000.0,152.0,15
134.0,23.42623138427,60,0.036,7.87e-09,786000000.0,152.0,15
135.0,23.43897819518,60,0.036,7.87e-09,786000000.0,152.0,15
136.0,23.45172500609,60,0.036,7.87e-09,786000000.0,152.0,15
137.0,23.464471817,60,0.036,7.87e-09,786000000.0,152.0,15
138.0,23.47717514037,60,0.036,7.87e-09,786000000.0,152.0,15
139.0,23.48987846374,60,0.036,7.87e-09,786000000.0,152.0,15
140.0,23.50258178711,60,0.036,7.87e-09,786000000.0,152.0,15
141.0,23.51528511048,60,0.036,7.87e-09,786000000.0,152.0,15
142.0,23.52798843385,60,0.036,7.87e-09,786000000.0,152.0,15
143.0,23.54069175722,60,0.036,7.87e-09,786000000.0,152.0,15
144.0,23.55339508059,60,0.036,7.87e-09,786000000.0,152.0,15
145.0,23.56609840396,60,0.036,7.87e-09,786000000.0,152.0,15
146.0,23.57880172733,60,0.036,7.87e-09,786000000.0,152.0,15
147.0,23.5915050507,60,0.036,7.87e-09,786000000.0,152.0,15
148.0,23.60416469578,60,0.036,7.87e-09,786000000.0,152.0,15
149.0,23.61682434086,60,0.036,7.87e-09,786000000.0,152.0,15
150.0,23.62948398594,60,0.036,7.87e-09,786000000.0,152.0,15
151.0,23.64214363102,60,0.036,7.87e-09,786000000.0,152.0,15
152.0,23.6548032761,60,0.036,7.87e-09,786000000.0,152.0,15
153.0,23.66746292118,60,0.036,7.87e-09,786000000.0,152.0,15
154.0,23.68012256626,60,0.036,7.87e-09,786000000.0,152.0,15
155.0,23.69278221134,60,0.036,7.87e-09,786000000.0,152.0,15
156.0,23.70544185642,60,0.036,7.87e-09,786000000.0,152.0,15
157.0,23.7181015015,60,0.036,7.87e-09,786000000.0,152.0,15
158.0,23.73071746829,60,0.036,7.87e-09,786000000.0,152.0,15
159.0,23.74333343508,60,0.036,7.87e-09,786000000.0,152.0,15
160.0,23.75594940187,60,0.036,7.87e-09,786000000.0,152.0,15
161.0,23.76856536866,60,0.036,7.87e-09,786000000.0,152.0,15
162.0,23.78118133545,60,0.036,7.87e-09,786000000.0,152.0,15
163.0,23.79379730224,60,0.036,7.87e-09,786000000.0,152.0,15
164.0,23.80641326903,60,0.036,7.87e-09,786000000.0,152.0,15
165.0,23.81902923582,60,0.036,7.87e-09,786000000.0,152.0,15
166.0,23.83164520261,60,0.036,7.87e-09,786000000.0,152.0,15
167.0,23.8442611694,60,0.036,7.87e-09,786000000.0,152.0,15
168.0,23.85683326718,60,0.036,7.87e-09,786000000.0,152.0,15
169.0,23.86940536496,60,0.036,7.87e-09,786000000.0,152.0,15
170.0,23.88197746274,60,0.036,7.87e-09,786000000.0,152.0,15
171.0,23.89454956052,60,0.036,7.87e-09,786000000.0,152.0,15
172.0,23.9071216583,60,0.036,7.87e-09,786000000.0,152.0,15
173.0,23.91969375608,60,0.036,7.87e-09,786000000.0,152.0,15
174.0,23.93226585386,60,0.036,7.87e-09,786000000.0,152.0,15
175.0,23.94483795164,60,0.036,7.87e-09,786000000.0,152.0,15
176.0,23.95741004942,60,0.036,7.87e-09,786000000.0,152.0,15
177.0,23.9699821472,60,0.036,7.87e-09,786000000.0,152.0,15
178.0,23.9825105667,60,0.036,7.87e-09,786000000.0,152.0,15
179.0,23.9950389862,60,0.036,7.87e-09,786000000.0,152.0,15
180.0,24.0075674057,60,0.036,7.87e-09,786000000.0,152.0,15
181.0,24.0200958252,60,0.036,7.87e-09,786000000.0,152.0,15
182.0,24.0326242447,60,0.036,7.87e-09,786000000.0,152.0,15
183.0,24.0451526642,60,0.036,7.87e-09,786000000.0,152.0,15
184.0,24.0576810837,60,0.036,7.87e-09,786000000.0,152.0,15
185.0,24.0702095032,60,0.036,7.87e-09,786000000.0,152.0,15
186.0,24.0827379227,60,0.036,7.87e-09,786000000.0,152.0,15
187.0,24.0952663422,60,0.036,7.87e-09,786000000.0,152.0,15
188.0,24.10775146488,60,0.036,7.87e-09,786000000.0,152.0,15
189.0,24.12023658756,60,0.036,7.87e-09,786000000.0,152.0,15
190.0,24.13272171024,60,0.036,7.87e-09,786000000.0,152.0,15
191.0,24.14520683292,60,0.036,7.87e-09,786000000.0,152.0,15
192.0,24.1576919556,60,0.036,7.87e-09,786000000.0,152.0,15
193.0,24.17017707828,60,0.036,7.87e-09,786000000.0,152.0,15
194.0,24.18266220096,60,0.036,7.87e-09,786000000.0,152.0,15
195.0,24.19514732364,60,0.036,7.87e-09,786000000.0,152.0,15
196.0,24.20763244632,60,0.036,7.87e-09,786000000.0,152.0,15
197.0,24.220117569,60,0.036,7.87e-09,786000000.0,152.0,15
198.0,24.23255901339,60,0.036,7.87e-09,786000000.0,152.0,15
199.0,24.24500045778,60,0.036,7.87e-09,786000000.0,152.0,15
200.0,24.25744190217,60,0.036,7.87e-09,786000000.0,152.0,15
201.0,24.26988334656,60,0.036,7.87e-09,786000000.0,152.0,15
202.0,24.28232479095,60,0.036,7.87e-09,786000000.0,152.0,15
203.0,24.29476623534,60,0.036,7.87e-09,786000000.0,152.0,15
204.0,24.30720767973,60,0.036,7.87e-09,786000000.0,152.0,15
205.0,24.31964912412,60,0.036,7.87e-09,786000000.0,152.0,15
206.0,24.33209056851,60,0.036,7.87e-09,786000000.0,152.0,15
207.0,24.3445320129,60,0.036,7.87e-09,786000000.0,152.0,15
208.0,24.35693035122,60,0.036,7.87e-09,786000000.0,152.0,15
209.0,24.36932868954,60,0.036,7.87e-09,786000000.0,152.0,15
210.0,24.38172702786,60,0.036,7.87e-09,786000000.0,152.0,15
211.0,24.39412536618,60,0.036,7.87e-09,786000000.0,152.0,15
212.0,24.4065237045,60,0.036,7.87e-09,786000000.0,152.0,15
213.0,24.41892204282,60,0.036,7.87e-09,786000000.0,152.0,15
214.0,24.43132038114,60,0.036,7.87e-09,786000000.0,152.0,15
215.0,24.44371871946,60,0.036,7.87e-09,786000000.0,152.0,15
216.0,24.45611705778,60,0.036,7.87e-09,786000000.0,152.0,15
217.0,24.4685153961,60,0.036,7.87e-09,786000000.0,152.0,15
218.0,24.48087062834,60,0.036,7.87e-09,786000000.0,152.0,15
219.0,24.49322586058,60,0.036,7.87e-09,786000000.0,152.0,15
220.0,24.50558109282,60,0.036,7.87e-09,786000000.0,152.0,15
221.0,24.51793632506,60,0.036,7.87e-09,786000000.0,152.0,15
222.0,24.5302915573,60,0.036,7.87e-09,786000000.0,152.0,15
223.0,24.54264678954,60,0.036,7.87e-09,786000000.0,152.0,15
224.0,24.55500202178,60,0.036,7.87e-09,786000000.0,152.0,15
225.0,24.56735725402,60,0.036,7.87e-09,786000000.0,152.0,15
226.0,24.57971248626,60,0.036,7.87e-09,786000000.0,152.0,15
227.0,24.5920677185,60,0.036,7.87e-09,786000000.0,152.0,15
228.0,24.6043800354,60,0.036,7.87e-09,786000000.0,152.0,15
229.0,24.6166923523,60,0.036,7.87e-09,786000000.0,152.0,15
230.0,24.6290046692,60,0.036,7.87e-09,786000000.0,152.0,15
231.0,24.6413169861,60,0.036,7.87e-09,786000000.0,152.0,15
232.0,24.653629303,60,0.036,7.87e-09,786000000.0,152.0,15
233.0,24.6659416199,60,0.036,7.87e-09,786000000.0,152.0,15
234.0,24.6782539368,60,0.036,7.87e-09,786000000.0,152.0,15
235.0,24.6905662537,60,0.036,7.87e-09,786000000.0,152.0,15
236.0,24.7028785706,60,0.036,7.87e-09,786000000.0,152.0,15
237.0,24.7151908875,60,0.036,7.87e-09,786000000.0,152.0,15
238.0,24.72746028905,60,0.036,7.87e-09,786000000.0,152.0,15
239.0,24.7397296906,60,0.036,7.87e-09,786000000.0,152.0,15
240.0,24.75199909215,60,0.036,7.87e-09,786000000.0,152.0,15
241.0,24.7642684937,60,0.036,7.87e-09,786000000.0,152.0,15
242.0,24.77653789525,60,0.036,7.87e-09,786000000.0,152.0,15
243.0,24.7888072968,60,0.036,7.87e-09,786000000.0,152.0,15
244.0,24.80107669835,60,0.036,7.87e-09,786000000.0,152.0,15
245.0,24.8133460999,60,0.036,7.87e-09,786000000.0,152.0,15
246.0,24.82561550145,60,0.036,7.87e-09,786000000.0,152.0,15
247.0,24.837884903,60,0.036,7.87e-09,786000000.0,152.0,15
248.0,24.85011177067,60,0.036,7.87e-09,786000000.0,152.0,15
249.0,24.86233863834,60,0.036,7.87e-09,786000000.0,152.0,15
250.0,24.87456550601,60,0.036,7.87e-09,786000000.0,152.0,15
251.0,24.88679237368,60,0.036,7.87e-09,786000000.0,152.0,15
252.0,24.89901924135,60,0.036,7.87e-09,786000000.0,152.0,15
253.0,24.91124610902,60,0.036,7.87e-09,786000000.0,152.0,15
254.0,24.92347297669,60,0.036,7.87e-09,786000000.0,152.0,15
255.0,24.93569984436,60,0.036,7.87e-09,786000000.0,152.0,15
256.0,24.94792671203,60,0.036,7.87e-09,786000000.0,152.0,15
257.0,24.9601535797,60,0.036,7.87e-09,786000000.0,152.0,15
258.0,24.9723379135,60,0.036,7.87e-09,786000000.0,152.0,15
259.0,24.9845222473,60,0.036,7.87e-09,786000000.0,152.0,15
260.0,24.9967065811,60,0.036,7.87e-09,786000000.0,152.0,15
261.0,25.0088909149,60,0.036,7.87e-09,786000000.0,152.0,15
262.0,25.0210752487,60,0.036,7.87e-09,786000000.0,152.0,15
263.0,25.0332595825,60,0.036,7.87e-09,786000000.0,152.0,15
264.0,25.0454439163,60,0.036,7.87e-09,786000000.0,152.0,15
265.0,25.0576282501,60,0.036,7.87e-09,786000000.0,152.0,15
266.0,25.0698125839,60,0.036,7.87e-09,786000000.0,152.0,15
267.0,25.0819969177,60,0.036,7.87e-09,786000000.0,152.0,15
268.0,25.09413871763,60,0.036,7.87e-09,786000000.0,152.0,15
269.0,25.10628051756,60,0.036,7.87e-09,786000000.0,152.0,15
270.0,25.11842231749,60,0.036,7.87e-09,786000000.0,152.0,15
271.0,25.13056411742,60,0.036,7.87e-09,786000000.0,152.0,15
272.0,25.14270591735,60,0.036,7.87e-09,786000000.0,152.0,15
273.0,25.15484771728,60,0.036,7.87e-09,786000000.0,152.0,15
274.0,25.16698951721,60,0.036,7.87e-09,786000000.0,152.0,15
275.0,25.17913131714,60,0.036,7.87e-09,786000000.0,152.0,15
276.0,25.19127311707,60,0.036,7.87e-09,786000000.0,152.0,15
277.0,25.203414917,60,0.036,7.87e-09,786000000.0,152.0,15
278.0,25.21551475526,60,0.036,7.87e-09,786000000.0,152.0,15
279.0,25.22761459352,60,0.036,7.87e-09,786000000.0,152.0,15
280.0,25.23971443178,60,0.036,7.87e-09,786000000.0,152.0,15
281.0,25.25181427004,60,0.036,7.87e-09,786000000.0,152.0,15
282.0,25.2639141083,60,0.036,7.87e-09,786000000.0,152.0,15
283.0,25.27601394656,60,0.036,7.87e-09,786000000.0,152.0,15
284.0,25.28811378482,60,0.036,7.87e-09,786000000.0,152.0,15
285.0,25.30021362308,60,0.036,7.87e-09,786000000.0,152.0,15
286.0,25.31231346134,60,0.036,7.87e-09,786000000.0,152.0,15
287.0,25.3244132996,60,0.036,7.87e-09,786000000.0,152.0,15
288.0,25.33647079471,60,0.036,7.87e-09,786000000.0,152.0,15
289.0,25.34852828982,60,0.036,7.87e-09,786000000.0,152.0,15
290.0,25.36058578493,60,0.036,7.87e-09,786000000.0,152.0,15
291.0,25.37264328004,60,0.036,7.87e-09,786000000.0,152.0,15
292.0,25.38470077515,60,0.036,7.87e-09,786000000.0,152.0,15
293.0,25.39675827026,60,0.036,7.87e-09,786000000.0,152.0,15
294.0,25.40881576537,60,0.036,7.87e-09,786000000.0,152.0,15
295.0,25.42087326048,60,0.036,7.87e-09,786000000.0,152.0,15
296.0,25.43293075559,60,0.036,7.87e-09,786000000.0,152.0,15
297.0,25.4449882507,60,0.036,7.87e-09,786000000.0,152.0,15
298.0,25.45700397489,60,0.036,7.87e-09,786000000.0,152.0,15
299.0,25.46901969908,60,0.036,7.87e-09,786000000.0,152.0,15
300.0,25.48103542327,60,0.036,7.87e-09,786000000.0,152.0,15
301.0,25.49305114746,60,0.036,7.87e-09,786000000.0,152.0,15
302.0,25.50506687165,60,0.036,7.87e-09,786000000.0,152.0,15
303.0,25.51708259584,60,0.036,7.87e-09,786000000.0,152.0,15
304.0,25.52909832003,60,0.036,7.87e-09,786000000.0,152.0,15
305.0,25.54111404422,60,0.036,7.87e-09,786000000.0,152.0,15
306.0,25.55312976841,60,0.036,7.87e-09,786000000.0,152.0,15
307.0,25.5651454926,60,0.036,7.87e-09,786000000.0,152.0,15
308.0,25.57711944584,60,0.036,7.87e-09,786000000.0,152.0,15
309.0,25.58909339908,60,0.036,7.87e-09,786000000.0,152.0,15
310.0,25.60106735232,60,0.036,7.87e-09,786000000.0,152.0,15
311.0,25.61304130556,60,0.036,7.87e-09,786000000.0,152.0,15
312.0,25.6250152588,60,0.036,7.87e-09,786000000.0,152.0,15
313.0,25.63698921204,60,0.036,7.87e-09,786000000.0,152.0,15
314.0,25.64896316528,60,0.036,7.87e-09,786000000.0,152.0,15
315.0,25.66093711852,60,0.036,7.87e-09,786000000.0,152.0,15
316.0,25.67291107176,60,0.036,7.87e-09,786000000.0,152.0,15
317.0,25.684885025,60,0.036,7.87e-09,786000000.0,152.0,15
318.0,25.69681739805,60,0.036,7.87e-09,786000000.0,152.0,15
319.0,25.7087497711,60,0.036,7.87e-09,786000000.0,152.0,15
320.0,25.72068214415,60,0.036,7.87e-09,786000000.0,152.0,15
321.0,25.7326145172,60,0.036,7.87e-09,786000000.0,152.0,15
322.0,25.74454689025,60,0.036,7.87e-09,786000000.0,152.0,15
323.0,25.7564792633,60,0.036,7.87e-09,786000000.0,152.0,15
324.0,25.76841163635,60,0.036,7.87e-09,786000000.0,152.0,15
325.0,25.7803440094,60,0.036,7.87e-09,786000000.0,152.0,15
326.0,25.79227638245,60,0.036,7.87e-09,786000000.0,152.0,15
327.0,25.8042087555,60,0.036,7.87e-09,786000000.0,152.0,15
328.0,25.81609954835,60,0.036,7.87e-09,786000000.0,152.0,15
329.0,25.8279903412,60,0.036,7.87e-09,786000000.0,152.0,15
330.0,25.83988113405,60,0.036,7.87e-09,786000000.0,152.0,15
331.0,25.8517719269,60,0.036,7.87e-09,786000000.0,152.0,15
