time,T_int,T_ext_1,Film_Coef,Density,Specific_Heat,Thermal_Conductivity,Radius
1.0,21.999250412,22.88,0.036,2.71e-09,921000000.0,245.0,25
2.0,21.9977931976,23.76,0.036,2.71e-09,921000000.0,245.0,25
3.0,21.9955272675,24.64,0.036,2.71e-09,921000000.0,245.0,25
4.0,21.99209785465,25.52,0.036,2.71e-09,921000000.0,245.0,25
5.0,21.9886684418,26.4,0.036,2.71e-09,921000000.0,245.0,25
6.0,21.984931945825,27.28,0.036,2.71e-09,921000000.0,245.0,25
7.0,21.98119544985,28.16,0.036,2.71e-09,921000000.0,245.0,25
8.0,21.977458953875,29.04,0.036,2.71e-09,921000000.0,245.0,25
9.0,21.9737224579,29.92,0.036,2.71e-09,921000000.0,245.0,25
10.0,21.9723005294875,30.8,0.036,2.71e-09,921000000.0,245.0,25
11.0,21.970878601075,31.68,0.036,2.71e-09,921000000.0,245.0,25
12.0,21.9694566726625,32.56,0.036,2.71e-09,921000000.0,245.0,25
13.0,21.96803474425,33.44,0.036,2.71e-09,921000000.0,245.0,25
14.0,21.9666128158375,34.32,0.036,2.71e-09,921000000.0,245.0,25
15.0,21.965190887425,35.2,0.036,2.71e-09,921000000.0,245.0,25
16.0,21.9637689590125,36.08,0.036,2.71e-09,921000000.0,245.0,25
17.0,21.9623470306,36.96,0.036,2.71e-09,921000000.0,245.0,25
18.0,21.96501293179,37.84,0.036,2.71e-09,921000000.0,245.0,25
19.0,21.96767883298,38.72,0.036,2.71e-09,921000000.0,245.0,25
20.0,21.97034473417,39.6,0.036,2.71e-09,921000000.0,245.0,25
21.0,21.97301063536,40.48,0.036,2.71e-09,921000000.0,245.0,25
22.0,21.97567653655,41.36,0.036,2.71e-09,921000000.0,245.0,25
23.0,21.97834243774,42.24,0.036,2.71e-09,921000000.0,245.0,25
24.0,21.98100833893,43.12,0.036,2.71e-09,921000000.0,245.0,25
25.0,21.98367424012,44.0,0.036,2.71e-09,921000000.0,245.0,25
26.0,21.98634014131,44.88,0.036,2.71e-09,921000000.0,245.0,25
27.0,21.9890060425,45.76,0.036,2.71e-09,921000000.0,245.0,25
28.0,21.99607009889,46.64,0.036,2.71e-09,921000000.0,245.0,25
29.0,22.00313415528,47.52,0.036,2.71e-09,921000000.0,245.0,25
30.0,22.01019821167,48.4,0.036,2.71e-09,921000000.0,245.0,25
31.0,22.01726226806,49.28,0.036,2.71e-09,921000000.0,245.0,25
32.0,22.02432632445,50.16,0.036,2.71e-09,921000000.0,245.0,25
33.0,22.03139038084,51.04,0.036,2.71e-09,921000000.0,245.0,25
34.0,22.03845443723,51.92,0.036,2.71e-09,921000000.0,245.0,25
35.0,22.04551849362,52.8,0.036,2.71e-09,921000000.0,245.0,25
36.0,22.05258255001,53.68,0.036,2.71e-09,921000000.0,245.0,25
37.0,22.0596466064,54.56,0.036,2.71e-09,921000000.0,245.0,25
38.0,22.0711896896,55.44,0.036,2.71e-09,921000000.0,245.0,25
39.0,22.0827327728,56.32,0.036,2.71e-09,921000000.0,245.0,25
40.0,22.094275856,57.2,0.036,2.71e-09,921000000.0,245.0,25
41.0,22.1058189392,58.08,0.036,2.71e-09,921000000.0,245.0,25
42.0,22.1173620224,58.96,0.036,2.71e-09,921000000.0,245.0,25
43.0,22.1289051056,59.84,0.036,2.71e-09,921000000.0,245.0,25
44.0,22.1404481888,60.72,0.036,2.71e-09,921000000.0,245.0,25
45.0,22.151991272,61.6,0.036,2.71e-09,921000000.0,245.0,25
46.0,22.1635343552,62.48,0.036,2.71e-09,921000000.0,245.0,25
47.0,22.1750774384,63.36,0.036,2.71e-09,921000000.0,245.0,25
48.0,22.1888576508,64.24,0.036,2.71e-09,921000000.0,245.0,25
49.0,22.2026378632,65.12,0.036,2.71e-09,921000000.0,245.0,25
50.0,22.2164180756,66.0,0.036,2.71e-09,921000000.0,245.0,25
51.0,22.230198288,62.94,0.036,2.71e-09,921000000.0,245.0,25
52.0,22.2439785004,62.88,0.036,2.71e-09,921000000.0,245.0,25
53.0,22.2577587128,62.82,0.036,2.71e-09,921000000.0,245.0,25
54.0,22.2715389252,62.76,0.036,2.71e-09,921000000.0,245.0,25
55.0,22.2853191376,62.7,0.036,2.71e-09,921000000.0,245.0,25
56.0,22.29909935,62.64,0.036,2.71e-09,921000000.0,245.0,25
57.0,22.3128795624,62.58,0.036,2.71e-09,921000000.0,245.0,25
58.0,22.32707767489,62.52,0.036,2.71e-09,921000000.0,245.0,25
59.0,22.34127578738,62.46,0.036,2.71e-09,921000000.0,245.0,25
60.0,22.35547389987,62.4,0.036,2.71e-09,921000000.0,245.0,25
61.0,22.36967201236,62.34,0.036,2.71e-09,921000000.0,245.0,25
62.0,22.38387012485,62.28,0.036,2.71e-09,921000000.0,245.0,25
63.0,22.39806823734,62.22,0.036,2.71e-09,921000000.0,245.0,25
64.0,22.41226634983,62.16,0.036,2.71e-09,921000000.0,245.0,25
65.0,22.42646446232,62.1,0.036,2.71e-09,921000000.0,245.0,25
66.0,22.44066257481,62.04,0.036,2.71e-09,921000000.0,245.0,25
67.0,22.4548606873,61.98,0.036,2.71e-09,921000000.0,245.0,25
68.0,22.46886005406,61.92,0.036,2.71e-09,921000000.0,245.0,25
69.0,22.48285942082,61.86,0.036,2.71e-09,921000000.0,245.0,25
70.0,22.49685878758,61.8,0.036,2.71e-09,921000000.0,245.0,25
71.0,22.51085815434,61.74,0.036,2.71e-09,921000000.0,245.0,25
72.0,22.5248575211,61.68,0.036,2.71e-09,921000000.0,245.0,25
73.0,22.53885688786,61.62,0.036,2.71e-09,921000000.0,245.0,25
74.0,22.55285625462,61.56,0.036,2.71e-09,921000000.0,245.0,25
75.0,22.56685562138,61.5,0.036,2.71e-09,921000000.0,245.0,25
76.0,22.58085498814,61.44,0.036,2.71e-09,921000000.0,245.0,25
77.0,22.5948543549,61.38,0.036,2.71e-09,921000000.0,245.0,25
78.0,22.60847606663,61.32,0.036,2.71e-09,921000000.0,245.0,25
79.0,22.62209777836,61.26,0.036,2.71e-09,921000000.0,245.0,25
80.0,22.63571949009,61.2,0.036,2.71e-09,921000000.0,245.0,25
81.0,22.64934120182,61.14,0.036,2.71e-09,921000000.0,245.0,25
82.0,22.66296291355,61.08,0.036,2.71e-09,921000000.0,245.0,25
83.0,22.67658462528,61.02,0.036,2.71e-09,921000000.0,245.0,25
84.0,22.69020633701,60.96,0.036,2.71e-09,921000000.0,245.0,25
85.0,22.70382804874,60.9,0.036,2.71e-09,921000000.0,245.0,25
86.0,22.71744976047,60.84,0.036,2.71e-09,921000000.0,245.0,25
87.0,22.7310714722,60.78,0.036,2.71e-09,921000000.0,245.0,25
88.0,22.74426345828,60.72,0.036,2.71e-09,921000000.0,245.0,25
89.0,22.75745544436,60.66,0.036,2.71e-09,921000000.0,245.0,25
90.0,22.77064743044,60.6,0.036,2.71e-09,921000000.0,245.0,25
91.0,22.78383941652,60.54,0.036,2.71e-09,921000000.0,245.0,25
92.0,22.7970314026,60.48,0.036,2.71e-09,921000000.0,245.0,25
93.0,22.81022338868,60.42,0.036,2.71e-09,921000000.0,245.0,25
94.0,22.82341537476,60.36,0.036,2.71e-09,921000000.0,245.0,25
95.0,22.83660736084,60.3,0.036,2.71e-09,921000000.0,245.0,25
96.0,22.84979934692,60.24,0.036,2.71e-09,921000000.0,245.0,25
97.0,22.862991333,60.18,0.036,2.71e-09,921000000.0,245.0,25
98.0,22.87592601775,60.12,0.036,2.71e-09,921000000.0,245.0,25
99.0,22.8888607025,60.06,0.036,2.71e-09,921000000.0,245.0,25
100.0,22.90179538725,60.0,0.036,2.71e-09,921000000.0,245.0,25
101.0,22.914730072,60,0.036,2.71e-09,921000000.0,245.0,25
102.0,22.92766475675,60,0.036,2.71e-09,921000000.0,245.0,25
103.0,22.9405994415,60,0.036,2.71e-09,921000000.0,245.0,25
104.0,22.95353412625,60,0.036,2.71e-09,921000000.0,245.0,25
105.0,22.966468811,60,0.036,2.71e-09,921000000.0,245.0,25
106.0,22.97940349575,60,0.036,2.71e-09,921000000.0,245.0,25
107.0,22.9923381805,60,0.036,2.71e-09,921000000.0,245.0,25
108.0,23.0051614761,60,0.036,2.71e-09,921000000.0,245.0,25
109.0,23.0179847717,60,0.036,2.71e-09,921000000.0,245.0,25
110.0,23.0308080673,60,0.036,2.71e-09,921000000.0,245.0,25
111.0,23.0436313629,60,0.036,2.71e-09,921000000.0,245.0,25
112.0,23.0564546585,60,0.036,2.71e-09,921000000.0,245.0,25
113.0,23.0692779541,60,0.036,2.71e-09,921000000.0,245.0,25
114.0,23.0821012497,60,0.036,2.71e-09,921000000.0,245.0,25
115.0,23.0949245453,60,0.036,2.71e-09,921000000.0,245.0,25
116.0,23.1077478409,60,0.036,2.71e-09,921000000.0,245.0,25
117.0,23.1205711365,60,0.036,2.71e-09,921000000.0,245.0,25
118.0,23.13333168032,60,0.036,2.71e-09,921000000.0,245.0,25
119.0,23.14609222414,60,0.036,2.71e-09,921000000.0,245.0,25
120.0,23.15885276796,60,0.036,2.71e-09,921000000.0,245.0,25
121.0,23.17161331178,60,0.036,2.71e-09,921000000.0,245.0,25
122.0,23.1843738556,60,0.036,2.71e-09,921000000.0,245.0,25
123.0,23.19713439942,60,0.036,2.71e-09,921000000.0,245.0,25
124.0,23.20989494324,60,0.036,2.71e-09,921000000.0,245.0,25
125.0,23.22265548706,60,0.036,2.71e-09,921000000.0,245.0,25
126.0,23.23541603088,60,0.036,2.71e-09,921000000.0,245.0,25
127.0,23.2481765747,60,0.036,2.71e-09,921000000.0,245.0,25
128.0,23.26088848113,60,0.036,2.71e-09,921000000.0,245.0,25
129.0,23.27360038756,60,0.036,2.71e-09,921000000.0,245.0,25
130.0,23.28631229399,60,0.036,2.71e-09,921000000.0,245.0,25
131.0,23.29902420042,60,0.036,2.71e-09,921000000.0,245.0,25
132.0,23.31173610685,60,0.036,2.71e-09,921000000.0,245.0,25
133.0,23.32444801328,60,0.036,2.71e-09,921000000.0,245.0,25
134.0,23.33715991971,60,0.036,2.71e-09,921000000.0,245.0,25
135.0,23.34987182614,60,0.036,2.71e-09,921000000.0,245.0,25
136.0,23.36258373257,60,0.036,2.71e-09,921000000.0,245.0,25
137.0,23.375295639,60,0.036,2.71e-09,921000000.0,245.0,25
138.0,23.38796215054,60,0.036,2.71e-09,921000000.0,245.0,25
139.0,23.40062866208,60,0.036,2.71e-09,921000000.0,245.0,25
140.0,23.41329517362,60,0.036,2.71e-09,921000000.0,245.0,25
141.0,23.42596168516,60,0.036,2.71e-09,921000000.0,245.0,25
142.0,23.4386281967,60,0.036,2.71e-09,921000000.0,245.0,25
143.0,23.45129470824,60,0.036,2.71e-09,921000000.0,245.0,25
144.0,23.46396121978,60,0.036,2.71e-09,921000000.0,245.0,25
145.0,23.47662773132,60,0.036,2.71e-09,921000000.0,245.0,25
146.0,23.48929424286,60,0.036,2.71e-09,921000000.0,245.0,25
147.0,23.5019607544,60,0.036,2.71e-09,921000000.0,245.0,25
148.0,23.51458339692,60,0.036,2.71e-09,921000000.0,245.0,25
149.0,23.52720603944,60,0.036,2.71e-09,921000000.0,245.0,25
150.0,23.53982868196,60,0.036,2.71e-09,921000000.0,245.0,25
151.0,23.55245132448,60,0.036,2.71e-09,921000000.0,245.0,25
152.0,23.565073967,60,0.036,2.71e-09,921000000.0,245.0,25
153.0,23.57769660952,60,0.036,2.71e-09,921000000.0,245.0,25
154.0,23.59031925204,60,0.036,2.71e-09,921000000.0,245.0,25
155.0,23.60294189456,60,0.036,2.71e-09,921000000.0,245.0,25
156.0,23.61556453708,60,0.036,2.71e-09,921000000.0,245.0,25
157.0,23.6281871796,60,0.036,2.71e-09,921000000.0,245.0,25
158.0,23.64076614383,60,0.036,2.71e-09,921000000.0,245.0,25
159.0,23.65334510806,60,0.036,2.71e-09,921000000.0,245.0,25
160.0,23.66592407229,60,0.036,2.71e-09,921000000.0,245.0,25
161.0,23.67850303652,60,0.036,2.71e-09,921000000.0,245.0,25
162.0,23.69108200075,60,0.036,2.71e-09,921000000.0,245.0,25
163.0,23.70366096498,60,0.036,2.71e-09,921000000.0,245.0,25
164.0,23.71623992921,60,0.036,2.71e-09,921000000.0,245.0,25
165.0,23.72881889344,60,0.036,2.71e-09,921000000.0,245.0,25
166.0,23.74139785767,60,0.036,2.71e-09,921000000.0,245.0,25
167.0,23.7539768219,60,0.036,2.71e-09,921000000.0,245.0,25
168.0,23.76651229858,60,0.036,2.71e-09,921000000.0,245.0,25
169.0,23.77904777526,60,0.036,2.71e-09,921000000.0,245.0,25
170.0,23.79158325194,60,0.036,2.71e-09,921000000.0,245.0,25
171.0,23.80411872862,60,0.036,2.71e-09,921000000.0,245.0,25
172.0,23.8166542053,60,0.036,2.71e-09,921000000.0,245.0,25
173.0,23.82918968198,60,0.036,2.71e-09,921000000.0,245.0,25
174.0,23.84172515866,60,0.036,2.71e-09,921000000.0,245.0,25
175.0,23.85426063534,60,0.036,2.71e-09,921000000.0,245.0,25
176.0,23.86679611202,60,0.036,2.71e-09,921000000.0,245.0,25
177.0,23.8793315887,60,0.036,2.71e-09,921000000.0,245.0,25
178.0,23.89182376858,60,0.036,2.71e-09,921000000.0,245.0,25
179.0,23.90431594846,60,0.036,2.71e-09,921000000.0,245.0,25
180.0,23.91680812834,60,0.036,2.71e-09,921000000.0,245.0,25
181.0,23.92930030822,60,0.036,2.71e-09,921000000.0,245.0,25
182.0,23.9417924881,60,0.036,2.71e-09,921000000.0,245.0,25
183.0,23.95428466798,60,0.036,2.71e-09,921000000.0,245.0,25
184.0,23.96677684786,60,0.036,2.71e-09,921000000.0,245.0,25
185.0,23.97926902774,60,0.036,2.71e-09,921000000.0,245.0,25
186.0,23.99176120762,60,0.036,2.71e-09,921000000.0,245.0,25
187.0,24.0042533875,60,0.036,2.71e-09,921000000.0,245.0,25
188.0,24.01670227055,60,0.036,2.71e-09,921000000.0,245.0,25
189.0,24.0291511536,60,0.036,2.71e-09,921000000.0,245.0,25
190.0,24.04160003665,60,0.036,2.71e-09,921000000.0,245.0,25
191.0,24.0540489197,60,0.036,2.71e-09,921000000.0,245.0,25
192.0,24.06649780275,60,0.036,2.71e-09,921000000.0,245.0,25
193.0,24.0789466858,60,0.036,2.71e-09,921000000.0,245.0,25
194.0,24.09139556885,60,0.036,2.71e-09,921000000.0,245.0,25
195.0,24.1038444519,60,0.036,2.71e-09,921000000.0,245.0,25
196.0,24.11629333495,60,0.036,2.71e-09,921000000.0,245.0,25
197.0,24.128742218,60,0.036,2.71e-09,921000000.0,245.0,25
198.0,24.14114818571,60,0.036,2.71e-09,921000000.0,245.0,25
199.0,24.15355415342,60,0.036,2.71e-09,921000000.0,245.0,25
200.0,24.16596012113,60,0.036,2.71e-09,921000000.0,245.0,25
201.0,24.17836608884,60,0.036,2.71e-09,921000000.0,245.0,25
202.0,24.19077205655,60,0.036,2.71e-09,921000000.0,245.0,25
203.0,24.20317802426,60,0.036,2.71e-09,921000000.0,245.0,25
204.0,24.21558399197,60,0.036,2.71e-09,921000000.0,245.0,25
205.0,24.22798995968,60,0.036,2.71e-09,921000000.0,245.0,25
206.0,24.24039592739,60,0.036,2.71e-09,921000000.0,245.0,25
207.0,24.2528018951,60,0.036,2.71e-09,921000000.0,245.0,25
208.0,24.26516513821,60,0.036,2.71e-09,921000000.0,245.0,25
209.0,24.27752838132,60,0.036,2.71e-09,921000000.0,245.0,25
210.0,24.28989162443,60,0.036,2.71e-09,921000000.0,245.0,25
211.0,24.30225486754,60,0.036,2.71e-09,921000000.0,245.0,25
212.0,24.31461811065,60,0.036,2.71e-09,921000000.0,245.0,25
213.0,24.32698135376,60,0.036,2.71e-09,921000000.0,245.0,25
214.0,24.33934459687,60,0.036,2.71e-09,921000000.0,245.0,25
215.0,24.35170783998,60,0.036,2.71e-09,921000000.0,245.0,25
216.0,24.36407108309,60,0.036,2.71e-09,921000000.0,245.0,25
217.0,24.3764343262,60,0.036,2.71e-09,921000000.0,245.0,25
218.0,24.38875465396,60,0.036,2.71e-09,921000000.0,245.0,25
219.0,24.40107498172,60,0.036,2.71e-09,921000000.0,245.0,25
220.0,24.41339530948,60,0.036,2.71e-09,921000000.0,245.0,25
221.0,24.42571563724,60,0.036,2.71e-09,921000000.0,245.0,25
222.0,24.438035965,60,0.036,2.71e-09,921000000.0,245.0,25
223.0,24.45035629276,60,0.036,2.71e-09,921000000.0,245.0,25
224.0,24.46267662052,60,0.036,2.71e-09,921000000.0,245.0,25
225.0,24.47499694828,60,0.036,2.71e-09,921000000.0,245.0,25
226.0,24.48731727604,60,0.036,2.71e-09,921000000.0,245.0,25
227.0,24.4996376038,60,0.036,2.71e-09,921000000.0,245.0,25
228.0,24.51191539768,60,0.036,2.71e-09,921000000.0,245.0,25
229.0,24.52419319156,60,0.036,2.71e-09,921000000.0,245.0,25
230.0,24.53647098544,60,0.036,2.71e-09,921000000.0,245.0,25
231.0,24.54874877932,60,0.036,2.71e-09,921000000.0,245.0,25
232.0,24.5610265732,60,0.036,2.71e-09,921000000.0,245.0,25
233.0,24.57330436708,60,0.036,2.71e-09,921000000.0,245.0,25
234.0,24.58558216096,60,0.036,2.71e-09,921000000.0,245.0,25
235.0,24.59785995484,60,0.036,2.71e-09,921000000.0,245.0,25
236.0,24.61013774872,60,0.036,2.71e-09,921000000.0,245.0,25
237.0,24.6224155426,60,0.036,2.71e-09,921000000.0,245.0,25
238.0,24.63465080261,60,0.036,2.71e-09,921000000.0,245.0,25
239.0,24.64688606262,60,0.036,2.71e-09,921000000.0,245.0,25
240.0,24.65912132263,60,0.036,2.71e-09,921000000.0,245.0,25
241.0,24.67135658264,60,0.036,2.71e-09,921000000.0,245.0,25
242.0,24.68359184265,60,0.036,2.71e-09,921000000.0,245.0,25
243.0,24.69582710266,60,0.036,2.71e-09,921000000.0,245.0,25
244.0,24.70806236267,60,0.036,2.71e-09,921000000.0,245.0,25
245.0,24.72029762268,60,0.036,2.71e-09,921000000.0,245.0,25
246.0,24.73253288269,60,0.036,2.71e-09,921000000.0,245.0,25
247.0,24.7447681427,60,0.036,2.71e-09,921000000.0,245.0,25
248.0,24.75696105957,60,0.036,2.71e-09,921000000.0,245.0,25
249.0,24.76915397644,60,0.036,2.71e-09,921000000.0,245.0,25
250.0,24.78134689331,60,0.036,2.71e-09,921000000.0,245.0,25
251.0,24.79353981018,60,0.036,2.71e-09,921000000.0,245.0,25
252.0,24.80573272705,60,0.036,2.71e-09,921000000.0,245.0,25
253.0,24.81792564392,60,0.036,2.71e-09,921000000.0,245.0,25
254.0,24.83011856079,60,0.036,2.71e-09,921000000.0,245.0,25
255.0,24.84231147766,60,0.036,2.71e-09,921000000.0,245.0,25
256.0,24.85450439453,60,0.036,2.71e-09,921000000.0,245.0,25
257.0,24.8666973114,60,0.036,2.71e-09,921000000.0,245.0,25
258.0,24.87884807587,60,0.036,2.71e-09,921000000.0,245.0,25
259.0,24.89099884034,60,0.036,2.71e-09,921000000.0,245.0,25
260.0,24.90314960481,60,0.036,2.71e-09,921000000.0,245.0,25
261.0,24.91530036928,60,0.036,2.71e-09,921000000.0,245.0,25
262.0,24.92745113375,60,0.036,2.71e-09,921000000.0,245.0,25
263.0,24.93960189822,60,0.036,2.71e-09,921000000.0,245.0,25
264.0,24.95175266269,60,0.036,2.71e-09,921000000.0,245.0,25
265.0,24.96390342716,60,0.036,2.71e-09,921000000.0,245.0,25
266.0,24.97605419163,60,0.036,2.71e-09,921000000.0,245.0,25
267.0,24.9882049561,60,0.036,2.71e-09,921000000.0,245.0,25
268.0,25.00031375889,60,0.036,2.71e-09,921000000.0,245.0,25
269.0,25.01242256168,60,0.036,2.71e-09,921000000.0,245.0,25
270.0,25.02453136447,60,0.036,2.71e-09,921000000.0,245.0,25
271.0,25.03664016726,60,0.036,2.71e-09,921000000.0,245.0,25
272.0,25.04874897005,60,0.036,2.71e-09,921000000.0,245.0,25
273.0,25.06085777284,60,0.036,2.71e-09,921000000.0,245.0,25
274.0,25.07296657563,60,0.036,2.71e-09,921000000.0,245.0,25
275.0,25.08507537842,60,0.036,2.71e-09,921000000.0,245.0,25
276.0,25.09718418121,60,0.036,2.71e-09,921000000.0,245.0,25
277.0,25.109292984,60,0.036,2.71e-09,921000000.0,245.0,25
278.0,25.12136001586,60,0.036,2.71e-09,921000000.0,245.0,25
279.0,25.13342704772,60,0.036,2.71e-09,921000000.0,245.0,25
280.0,25.14549407958,60,0.036,2.71e-09,921000000.0,245.0,25
281.0,25.15756111144,60,0.036,2.71e-09,921000000.0,245.0,25
282.0,25.1696281433,60,0.036,2.71e-09,921000000.0,245.0,25
283.0,25.18169517516,60,0.036,2.71e-09,921000000.0,245.0,25
284.0,25.19376220702,60,0.036,2.71e-09,921000000.0,245.0,25
285.0,25.20582923888,60,0.036,2.71e-09,921000000.0,245.0,25
286.0,25.21789627074,60,0.036,2.71e-09,921000000.0,245.0,25
287.0,25.2299633026,60,0.036,2.71e-09,921000000.0,245.0,25
288.0,25.24198837279,60,0.036,2.71e-09,921000000.0,245.0,25
289.0,25.25401344298,60,0.036,2.71e-09,921000000.0,245.0,25
290.0,25.26603851317,60,0.036,2.71e-09,921000000.0,245.0,25
291.0,25.27806358336,60,0.036,2.71e-09,921000000.0,245.0,25
292.0,25.29008865355,60,0.036,2.71e-09,921000000.0,245.0,25
293.0,25.30211372374,60,0.036,2.71e-09,921000000.0,245.0,25
294.0,25.31413879393,60,0.036,2.71e-09,921000000.0,245.0,25
295.0,25.32616386412,60,0.036,2.71e-09,921000000.0,245.0,25
296.0,25.33818893431,60,0.036,2.71e-09,921000000.0,245.0,25
297.0,25.3502140045,60,0.036,2.71e-09,921000000.0,245.0,25
298.0,25.36219768523,60,0.036,2.71e-09,921000000.0,245.0,25
299.0,25.37418136596,60,0.036,2.71e-09,921000000.0,245.0,25
300.0,25.38616504669,60,0.036,2.71e-09,921000000.0,245.0,25
301.0,25.39814872742,60,0.036,2.71e-09,921000000.0,245.0,25
302.0,25.41013240815,60,0.036,2.71e-09,921000000.0,245.0,25
303.0,25.42211608888,60,0.036,2.71e-09,921000000.0,245.0,25
304.0,25.43409976961,60,0.036,2.71e-09,921000000.0,245.0,25
305.0,25.44608345034,60,0.036,2.71e-09,921000000.0,245.0,25
306.0,25.45806713107,60,0.036,2.71e-09,921000000.0,245.0,25
307.0,25.4700508118,60,0.036,2.71e-09,921000000.0,245.0,25
308.0,25.48199291232,60,0.036,2.71e-09,921000000.0,245.0,25
309.0,25.49393501284,60,0.036,2.71e-09,921000000.0,245.0,25
310.0,25.50587711336,60,0.036,2.71e-09,921000000.0,245.0,25
311.0,25.51781921388,60,0.036,2.71e-09,921000000.0,245.0,25
312.0,25.5297613144,60,0.036,2.71e-09,921000000.0,245.0,25
313.0,25.54170341492,60,0.036,2.71e-09,921000000.0,245.0,25
314.0,25.55364551544,60,0.036,2.71e-09,921000000.0,245.0,25
315.0,25.56558761596,60,0.036,2.71e-09,921000000.0,245.0,25
316.0,25.57752971648,60,0.036,2.71e-09,921000000.0,245.0,25
317.0,25.589471817,60,0.036,2.71e-09,921000000.0,245.0,25
318.0,25.6013727188,60,0.036,2.71e-09,921000000.0,245.0,25
319.0,25.6132736206,60,0.036,2.71e-09,921000000.0,245.0,25
320.0,25.6251745224,60,0.036,2.71e-09,921000000.0,245.0,25
321.0,25.6370754242,60,0.036,2.71e-09,921000000.0,245.0,25
322.0,25.648976326,60,0.036,2.71e-09,921000000.0,245.0,25
323.0,25.6608772278,60,0.036,2.71e-09,921000000.0,245.0,25
324.0,25.6727781296,60,0.036,2.71e-09,921000000.0,245.0,25
325.0,25.6846790314,60,0.036,2.71e-09,921000000.0,245.0,25
326.0,25.6965799332,60,0.036,2.71e-09,921000000.0,245.0,25
327.0,25.708480835,60,0.036,2.71e-09,921000000.0,245.0,25
328.0,25.72034053806,60,0.036,2.71e-09,921000000.0,245.0,25
329.0,25.73220024112,60,0.036,2.71e-09,921000000.0,245.0,25
330.0,25.74405994418,60,0.036,2.71e-09,921000000.0,245.0,25
