time,T_int,T_ext_1,Film_Coef,Density,Specific_Heat,Thermal_Conductivity,Radius
1.0,21.9873409271,22.88,0.036,7.77e-09,686000000.0,132.0,15
2.0,21.9771785736,23.76,0.036,7.77e-09,686000000.0,132.0,15
3.0,21.9687213898,24.64,0.036,7.77e-09,686000000.0,132.0,15
4.0,21.96238136295,25.52,0.036,7.77e-09,686000000.0,132.0,15
5.0,21.9560413361,26.4,0.036,7.77e-09,686000000.0,132.0,15
6.0,21.952514648475,27.28,0.036,7.77e-09,686000000.0,132.0,15
7.0,21.94898796085,28.16,0.036,7.77e-09,686000000.0,132.0,15
8.0,21.945461273225,29.04,0.036,7.77e-09,686000000.0,132.0,15
9.0,21.9419345856,29.92,0.036,7.77e-09,686000000.0,132.0,15
10.0,21.9429023266125,30.8,0.036,7.77e-09,686000000.0,132.0,15
11.0,21.943870067625,31.68,0.036,7.77e-09,686000000.0,132.0,15
12.0,21.9448378086375,32.56,0.036,7.77e-09,686000000.0,132.0,15
13.0,21.94580554965,33.44,0.036,7.77e-09,686000000.0,132.0,15
14.0,21.9467732906625,34.32,0.036,7.77e-09,686000000.0,132.0,15
15.0,21.947741031675,35.2,0.036,7.77e-09,686000000.0,132.0,15
16.0,21.9487087726875,36.08,0.036,7.77e-09,686000000.0,132.0,15
17.0,21.9496765137,36.96,0.036,7.77e-09,686000000.0,132.0,15
18.0,21.95587158206,37.84,0.036,7.77e-09,686000000.0,132.0,15
19.0,21.96206665042,38.72,0.036,7.77e-09,686000000.0,132.0,15
20.0,21.96826171878,39.6,0.036,7.77e-09,686000000.0,132.0,15
21.0,21.97445678714,40.48,0.036,7.77e-09,686000000.0,132.0,15
22.0,21.9806518555,41.36,0.036,7.77e-09,686000000.0,132.0,15
23.0,21.98684692386,42.24,0.036,7.77e-09,686000000.0,132.0,15
24.0,21.99304199222,43.12,0.036,7.77e-09,686000000.0,132.0,15
25.0,21.99923706058,44.0,0.036,7.77e-09,686000000.0,132.0,15
26.0,22.00543212894,44.88,0.036,7.77e-09,686000000.0,132.0,15
27.0,22.0116271973,45.76,0.036,7.77e-09,686000000.0,132.0,15
28.0,22.02294826511,46.64,0.036,7.77e-09,686000000.0,132.0,15
29.0,22.03426933292,47.52,0.036,7.77e-09,686000000.0,132.0,15
30.0,22.04559040073,48.4,0.036,7.77e-09,686000000.0,132.0,15
31.0,22.05691146854,49.28,0.036,7.77e-09,686000000.0,132.0,15
32.0,22.06823253635,50.16,0.036,7.77e-09,686000000.0,132.0,15
33.0,22.07955360416,51.04,0.036,7.77e-09,686000000.0,132.0,15
34.0,22.09087467197,51.92,0.036,7.77e-09,686000000.0,132.0,15
35.0,22.10219573978,52.8,0.036,7.77e-09,686000000.0,132.0,15
36.0,22.11351680759,53.68,0.036,7.77e-09,686000000.0,132.0,15
37.0,22.1248378754,54.56,0.036,7.77e-09,686000000.0,132.0,15
38.0,22.14125461581,55.44,0.036,7.77e-09,686000000.0,132.0,15
39.0,22.15767135622,56.32,0.036,7.77e-09,686000000.0,132.0,15
40.0,22.17408809663,57.2,0.036,7.77e-09,686000000.0,132.0,15
41.0,22.19050483704,58.08,0.036,7.77e-09,686000000.0,132.0,15
42.0,22.20692157745,58.96,0.036,7.77e-09,686000000.0,132.0,15
43.0,22.22333831786,59.84,0.036,7.77e-09,686000000.0,132.0,15
44.0,22.23975505827,60.72,0.036,7.77e-09,686000000.0,132.0,15
45.0,22.25617179868,61.6,0.036,7.77e-09,686000000.0,132.0,15
46.0,22.27258853909,62.48,0.036,7.77e-09,686000000.0,132.0,15
47.0,22.2890052795,63.36,0.036,7.77e-09,686000000.0,132.0,15
48.0,22.30602779385,64.24,0.036,7.77e-09,686000000.0,132.0,15
49.0,22.3230503082,65.12,0.036,7.77e-09,686000000.0,132.0,15
50.0,22.34007282255,66.0,0.036,7.77e-09,686000000.0,132.0,15
51.0,22.3570953369,62.94,0.036,7.77e-09,686000000.0,132.0,15
52.0,22.37411785125,62.88,0.036,7.77e-09,686000000.0,132.0,15
53.0,22.3911403656,62.82,0.036,7.77e-09,686000000.0,132.0,15
54.0,22.40816287995,62.76,0.036,7.77e-09,686000000.0,132.0,15
55.0,22.4251853943,62.7,0.036,7.77e-09,686000000.0,132.0,15
56.0,22.44220790865,62.64,0.036,7.77e-09,686000000.0,132.0,15
57.0,22.459230423,62.58,0.036,7.77e-09,686000000.0,132.0,15
58.0,22.47539939883,62.52,0.036,7.77e-09,686000000.0,132.0,15
59.0,22.49156837466,62.46,0.036,7.77e-09,686000000.0,132.0,15
60.0,22.50773735049,62.4,0.036,7.77e-09,686000000.0,132.0,15
61.0,22.52390632632,62.34,0.036,7.77e-09,686000000.0,132.0,15
62.0,22.54007530215,62.28,0.036,7.77e-09,686000000.0,132.0,15
63.0,22.55624427798,62.22,0.036,7.77e-09,686000000.0,132.0,15
64.0,22.57241325381,62.16,0.036,7.77e-09,686000000.0,132.0,15
65.0,22.58858222964,62.1,0.036,7.77e-09,686000000.0,132.0,15
66.0,22.60475120547,62.04,0.036,7.77e-09,686000000.0,132.0,15
67.0,22.6209201813,61.98,0.036,7.77e-09,686000000.0,132.0,15
68.0,22.63651866915,61.92,0.036,7.77e-09,686000000.0,132.0,15
69.0,22.652117157,61.86,0.036,7.77e-09,686000000.0,132.0,15
70.0,22.66771564485,61.8,0.036,7.77e-09,686000000.0,132.0,15
71.0,22.6833141327,61.74,0.036,7.77e-09,686000000.0,132.0,15
72.0,22.69891262055,61.68,0.036,7.77e-09,686000000.0,132.0,15
73.0,22.7145111084,61.62,0.036,7.77e-09,686000000.0,132.0,15
74.0,22.73010959625,61.56,0.036,7.77e-09,686000000.0,132.0,15
75.0,22.7457080841,61.5,0.036,7.77e-09,686000000.0,132.0,15
76.0,22.76130657195,61.44,0.036,7.77e-09,686000000.0,132.0,15
77.0,22.7769050598,61.38,0.036,7.77e-09,686000000.0,132.0,15
78.0,22.79198551177,61.32,0.036,7.77e-09,686000000.0,132.0,15
79.0,22.80706596374,61.26,0.036,7.77e-09,686000000.0,132.0,15
80.0,22.82214641571,61.2,0.036,7.77e-09,686000000.0,132.0,15
81.0,22.83722686768,61.14,0.036,7.77e-09,686000000.0,132.0,15
82.0,22.85230731965,61.08,0.036,7.77e-09,686000000.0,132.0,15
83.0,22.86738777162,61.02,0.036,7.77e-09,686000000.0,132.0,15
84.0,22.88246822359,60.96,0.036,7.77e-09,686000000.0,132.0,15
85.0,22.89754867556,60.9,0.036,7.77e-09,686000000.0,132.0,15
86.0,22.91262912753,60.84,0.036,7.77e-09,686000000.0,132.0,15
87.0,22.9277095795,60.78,0.036,7.77e-09,686000000.0,132.0,15
88.0,22.94227962497,60.72,0.036,7.77e-09,686000000.0,132.0,15
89.0,22.95684967044,60.66,0.036,7.77e-09,686000000.0,132.0,15
90.0,22.97141971591,60.6,0.036,7.77e-09,686000000.0,132.0,15
91.0,22.98598976138,60.54,0.036,7.77e-09,686000000.0,132.0,15
92.0,23.00055980685,60.48,0.036,7.77e-09,686000000.0,132.0,15
93.0,23.01512985232,60.42,0.036,7.77e-09,686000000.0,132.0,15
94.0,23.02969989779,60.36,0.036,7.77e-09,686000000.0,132.0,15
95.0,23.04426994326,60.3,0.036,7.77e-09,686000000.0,132.0,15
96.0,23.05883998873,60.24,0.036,7.77e-09,686000000.0,132.0,15
97.0,23.0734100342,60.18,0.036,7.77e-09,686000000.0,132.0,15
98.0,23.08784122469,60.12,0.036,7.77e-09,686000000.0,132.0,15
99.0,23.10227241518,60.06,0.036,7.77e-09,686000000.0,132.0,15
100.0,23.11670360567,60.0,0.036,7.77e-09,686000000.0,132.0,15
101.0,23.13113479616,60,0.036,7.77e-09,686000000.0,132.0,15
102.0,23.14556598665,60,0.036,7.77e-09,686000000.0,132.0,15
103.0,23.15999717714,60,0.036,7.77e-09,686000000.0,132.0,15
104.0,23.17442836763,60,0.036,7.77e-09,686000000.0,132.0,15
105.0,23.18885955812,60,0.036,7.77e-09,686000000.0,132.0,15
106.0,23.20329074861,60,0.036,7.77e-09,686000000.0,132.0,15
107.0,23.2177219391,60,0.036,7.77e-09,686000000.0,132.0,15
108.0,23.23213253022,60,0.036,7.77e-09,686000000.0,132.0,15
109.0,23.24654312134,60,0.036,7.77e-09,686000000.0,132.0,15
110.0,23.26095371246,60,0.036,7.77e-09,686000000.0,132.0,15
111.0,23.27536430358,60,0.036,7.77e-09,686000000.0,132.0,15
112.0,23.2897748947,60,0.036,7.77e-09,686000000.0,132.0,15
113.0,23.30418548582,60,0.036,7.77e-09,686000000.0,132.0,15
114.0,23.31859607694,60,0.036,7.77e-09,686000000.0,132.0,15
115.0,23.33300666806,60,0.036,7.77e-09,686000000.0,132.0,15
116.0,23.34741725918,60,0.036,7.77e-09,686000000.0,132.0,15
117.0,23.3618278503,60,0.036,7.77e-09,686000000.0,132.0,15
118.0,23.37619152065,60,0.036,7.77e-09,686000000.0,132.0,15
119.0,23.390555191,60,0.036,7.77e-09,686000000.0,132.0,15
120.0,23.40491886135,60,0.036,7.77e-09,686000000.0,132.0,15
121.0,23.4192825317,60,0.036,7.77e-09,686000000.0,132.0,15
122.0,23.43364620205,60,0.036,7.77e-09,686000000.0,132.0,15
123.0,23.4480098724,60,0.036,7.77e-09,686000000.0,132.0,15
124.0,23.46237354275,60,0.036,7.77e-09,686000000.0,132.0,15
125.0,23.4767372131,60,0.036,7.77e-09,686000000.0,132.0,15
126.0,23.49110088345,60,0.036,7.77e-09,686000000.0,132.0,15
127.0,23.5054645538,60,0.036,7.77e-09,686000000.0,132.0,15
128.0,23.51977519986,60,0.036,7.77e-09,686000000.0,132.0,15
129.0,23.53408584592,60,0.036,7.77e-09,686000000.0,132.0,15
130.0,23.54839649198,60,0.036,7.77e-09,686000000.0,132.0,15
131.0,23.56270713804,60,0.036,7.77e-09,686000000.0,132.0,15
132.0,23.5770177841,60,0.036,7.77e-09,686000000.0,132.0,15
133.0,23.59132843016,60,0.036,7.77e-09,686000000.0,132.0,15
134.0,23.60563907622,60,0.036,7.77e-09,686000000.0,132.0,15
135.0,23.61994972228,60,0.036,7.77e-09,686000000.0,132.0,15
136.0,23.63426036834,60,0.036,7.77e-09,686000000.0,132.0,15
137.0,23.6485710144,60,0.036,7.77e-09,686000000.0,132.0,15
138.0,23.66282672882,60,0.036,7.77e-09,686000000.0,132.0,15
139.0,23.67708244324,60,0.036,7.77e-09,686000000.0,132.0,15
140.0,23.69133815766,60,0.036,7.77e-09,686000000.0,132.0,15
141.0,23.70559387208,60,0.036,7.77e-09,686000000.0,132.0,15
142.0,23.7198495865,60,0.036,7.77e-09,686000000.0,132.0,15
143.0,23.73410530092,60,0.036,7.77e-09,686000000.0,132.0,15
144.0,23.74836101534,60,0.036,7.77e-09,686000000.0,132.0,15
145.0,23.76261672976,60,0.036,7.77e-09,686000000.0,132.0,15
146.0,23.77687244418,60,0.036,7.77e-09,686000000.0,132.0,15
147.0,23.7911281586,60,0.036,7.77e-09,686000000.0,132.0,15
148.0,23.8053285599,60,0.036,7.77e-09,686000000.0,132.0,15
149.0,23.8195289612,60,0.036,7.77e-09,686000000.0,132.0,15
150.0,23.8337293625,60,0.036,7.77e-09,686000000.0,132.0,15
151.0,23.8479297638,60,0.036,7.77e-09,686000000.0,132.0,15
152.0,23.8621301651,60,0.036,7.77e-09,686000000.0,132.0,15
153.0,23.8763305664,60,0.036,7.77e-09,686000000.0,132.0,15
154.0,23.8905309677,60,0.036,7.77e-09,686000000.0,132.0,15
155.0,23.904731369,60,0.036,7.77e-09,686000000.0,132.0,15
156.0,23.9189317703,60,0.036,7.77e-09,686000000.0,132.0,15
157.0,23.9331321716,60,0.036,7.77e-09,686000000.0,132.0,15
158.0,23.9472772598,60,0.036,7.77e-09,686000000.0,132.0,15
159.0,23.961422348,60,0.036,7.77e-09,686000000.0,132.0,15
160.0,23.9755674362,60,0.036,7.77e-09,686000000.0,132.0,15
161.0,23.9897125244,60,0.036,7.77e-09,686000000.0,132.0,15
162.0,24.0038576126,60,0.036,7.77e-09,686000000.0,132.0,15
163.0,24.0180027008,60,0.036,7.77e-09,686000000.0,132.0,15
164.0,24.032147789,60,0.036,7.77e-09,686000000.0,132.0,15
165.0,24.0462928772,60,0.036,7.77e-09,686000000.0,132.0,15
166.0,24.0604379654,60,0.036,7.77e-09,686000000.0,132.0,15
167.0,24.0745830536,60,0.036,7.77e-09,686000000.0,132.0,15
168.0,24.08867282868,60,0.036,7.77e-09,686000000.0,132.0,15
169.0,24.10276260376,60,0.036,7.77e-09,686000000.0,132.0,15
170.0,24.11685237884,60,0.036,7.77e-09,686000000.0,132.0,15
171.0,24.13094215392,60,0.036,7.77e-09,686000000.0,132.0,15
172.0,24.145031929,60,0.036,7.77e-09,686000000.0,132.0,15
173.0,24.15912170408,60,0.036,7.77e-09,686000000.0,132.0,15
174.0,24.17321147916,60,0.036,7.77e-09,686000000.0,132.0,15
175.0,24.18730125424,60,0.036,7.77e-09,686000000.0,132.0,15
176.0,24.20139102932,60,0.036,7.77e-09,686000000.0,132.0,15
177.0,24.2154808044,60,0.036,7.77e-09,686000000.0,132.0,15
178.0,24.22951526638,60,0.036,7.77e-09,686000000.0,132.0,15
179.0,24.24354972836,60,0.036,7.77e-09,686000000.0,132.0,15
180.0,24.25758419034,60,0.036,7.77e-09,686000000.0,132.0,15
181.0,24.27161865232,60,0.036,7.77e-09,686000000.0,132.0,15
182.0,24.2856531143,60,0.036,7.77e-09,686000000.0,132.0,15
183.0,24.29968757628,60,0.036,7.77e-09,686000000.0,132.0,15
184.0,24.31372203826,60,0.036,7.77e-09,686000000.0,132.0,15
185.0,24.32775650024,60,0.036,7.77e-09,686000000.0,132.0,15
186.0,24.34179096222,60,0.036,7.77e-09,686000000.0,132.0,15
187.0,24.3558254242,60,0.036,7.77e-09,686000000.0,132.0,15
188.0,24.36980514527,60,0.036,7.77e-09,686000000.0,132.0,15
189.0,24.38378486634,60,0.036,7.77e-09,686000000.0,132.0,15
190.0,24.39776458741,60,0.036,7.77e-09,686000000.0,132.0,15
191.0,24.41174430848,60,0.036,7.77e-09,686000000.0,132.0,15
192.0,24.42572402955,60,0.036,7.77e-09,686000000.0,132.0,15
193.0,24.43970375062,60,0.036,7.77e-09,686000000.0,132.0,15
194.0,24.45368347169,60,0.036,7.77e-09,686000000.0,132.0,15
195.0,24.46766319276,60,0.036,7.77e-09,686000000.0,132.0,15
196.0,24.48164291383,60,0.036,7.77e-09,686000000.0,132.0,15
197.0,24.4956226349,60,0.036,7.77e-09,686000000.0,132.0,15
198.0,24.50954742433,60,0.036,7.77e-09,686000000.0,132.0,15
199.0,24.52347221376,60,0.036,7.77e-09,686000000.0,132.0,15
200.0,24.53739700319,60,0.036,7.77e-09,686000000.0,132.0,15
201.0,24.55132179262,60,0.036,7.77e-09,686000000.0,132.0,15
202.0,24.56524658205,60,0.036,7.77e-09,686000000.0,132.0,15
203.0,24.57917137148,60,0.036,7.77e-09,686000000.0,132.0,15
204.0,24.59309616091,60,0.036,7.77e-09,686000000.0,132.0,15
205.0,24.60702095034,60,0.036,7.77e-09,686000000.0,132.0,15
206.0,24.62094573977,60,0.036,7.77e-09,686000000.0,132.0,15
207.0,24.6348705292,60,0.036,7.77e-09,686000000.0,132.0,15
208.0,24.64874076846,60,0.036,7.77e-09,686000000.0,132.0,15
209.0,24.66261100772,60,0.036,7.77e-09,686000000.0,132.0,15
210.0,24.67648124698,60,0.036,7.77e-09,686000000.0,132.0,15
211.0,24.69035148624,60,0.036,7.77e-09,686000000.0,132.0,15
212.0,24.7042217255,60,0.036,7.77e-09,686000000.0,132.0,15
213.0,24.71809196476,60,0.036,7.77e-09,686000000.0,132.0,15
214.0,24.73196220402,60,0.036,7.77e-09,686000000.0,132.0,15
215.0,24.74583244328,60,0.036,7.77e-09,686000000.0,132.0,15
216.0,24.75970268254,60,0.036,7.77e-09,686000000.0,132.0,15
217.0,24.7735729218,60,0.036,7.77e-09,686000000.0,132.0,15
218.0,24.78738880162,60,0.036,7.77e-09,686000000.0,132.0,15
219.0,24.80120468144,60,0.036,7.77e-09,686000000.0,132.0,15
220.0,24.81502056126,60,0.036,7.77e-09,686000000.0,132.0,15
221.0,24.82883644108,60,0.036,7.77e-09,686000000.0,132.0,15
222.0,24.8426523209,60,0.036,7.77e-09,686000000.0,132.0,15
223.0,24.85646820072,60,0.036,7.77e-09,686000000.0,132.0,15
224.0,24.87028408054,60,0.036,7.77e-09,686000000.0,132.0,15
225.0,24.88409996036,60,0.036,7.77e-09,686000000.0,132.0,15
226.0,24.89791584018,60,0.036,7.77e-09,686000000.0,132.0,15
227.0,24.91173172,60,0.036,7.77e-09,686000000.0,132.0,15
228.0,24.92549343112,60,0.036,7.77e-09,686000000.0,132.0,15
229.0,24.93925514224,60,0.036,7.77e-09,686000000.0,132.0,15
230.0,24.95301685336,60,0.036,7.77e-09,686000000.0,132.0,15
231.0,24.96677856448,60,0.036,7.77e-09,686000000.0,132.0,15
232.0,24.9805402756,60,0.036,7.77e-09,686000000.0,132.0,15
233.0,24.99430198672,60,0.036,7.77e-09,686000000.0,132.0,15
234.0,25.00806369784,60,0.036,7.77e-09,686000000.0,132.0,15
235.0,25.02182540896,60,0.036,7.77e-09,686000000.0,132.0,15
236.0,25.03558712008,60,0.036,7.77e-09,686000000.0,132.0,15
237.0,25.0493488312,60,0.036,7.77e-09,686000000.0,132.0,15
238.0,25.06305656435,60,0.036,7.77e-09,686000000.0,132.0,15
239.0,25.0767642975,60,0.036,7.77e-09,686000000.0,132.0,15
240.0,25.09047203065,60,0.036,7.77e-09,686000000.0,132.0,15
241.0,25.1041797638,60,0.036,7.77e-09,686000000.0,132.0,15
242.0,25.11788749695,60,0.036,7.77e-09,686000000.0,132.0,15
243.0,25.1315952301,60,0.036,7.77e-09,686000000.0,132.0,15
244.0,25.14530296325,60,0.036,7.77e-09,686000000.0,132.0,15
245.0,25.1590106964,60,0.036,7.77e-09,686000000.0,132.0,15
246.0,25.17271842955,60,0.036,7.77e-09,686000000.0,132.0,15
247.0,25.1864261627,60,0.036,7.77e-09,686000000.0,132.0,15
248.0,25.20008010862,60,0.036,7.77e-09,686000000.0,132.0,15
249.0,25.21373405454,60,0.036,7.77e-09,686000000.0,132.0,15
250.0,25.22738800046,60,0.036,7.77e-09,686000000.0,132.0,15
251.0,25.24104194638,60,0.036,7.77e-09,686000000.0,132.0,15
252.0,25.2546958923,60,0.036,7.77e-09,686000000.0,132.0,15
253.0,25.26834983822,60,0.036,7.77e-09,686000000.0,132.0,15
254.0,25.28200378414,60,0.036,7.77e-09,686000000.0,132.0,15
255.0,25.29565773006,60,0.036,7.77e-09,686000000.0,132.0,15
256.0,25.30931167598,60,0.036,7.77e-09,686000000.0,132.0,15
257.0,25.3229656219,60,0.036,7.77e-09,686000000.0,132.0,15
258.0,25.33656597133,60,0.036,7.77e-09,686000000.0,132.0,15
259.0,25.35016632076,60,0.036,7.77e-09,686000000.0,132.0,15
260.0,25.36376667019,60,0.036,7.77e-09,686000000.0,132.0,15
261.0,25.37736701962,60,0.036,7.77e-09,686000000.0,132.0,15
262.0,25.39096736905,60,0.036,7.77e-09,686000000.0,132.0,15
263.0,25.40456771848,60,0.036,7.77e-09,686000000.0,132.0,15
264.0,25.41816806791,60,0.036,7.77e-09,686000000.0,132.0,15
265.0,25.43176841734,60,0.036,7.77e-09,686000000.0,132.0,15
266.0,25.44536876677,60,0.036,7.77e-09,686000000.0,132.0,15
267.0,25.4589691162,60,0.036,7.77e-09,686000000.0,132.0,15
268.0,25.4725162506,60,0.036,7.77e-09,686000000.0,132.0,15
269.0,25.486063385,60,0.036,7.77e-09,686000000.0,132.0,15
270.0,25.4996105194,60,0.036,7.77e-09,686000000.0,132.0,15
271.0,25.5131576538,60,0.036,7.77e-09,686000000.0,132.0,15
272.0,25.5267047882,60,0.036,7.77e-09,686000000.0,132.0,15
273.0,25.5402519226,60,0.036,7.77e-09,686000000.0,132.0,15
274.0,25.553799057,60,0.036,7.77e-09,686000000.0,132.0,15
275.0,25.5673461914,60,0.036,7.77e-09,686000000.0,132.0,15
276.0,25.5808933258,60,0.036,7.77e-09,686000000.0,132.0,15
277.0,25.5944404602,60,0.036,7.77e-09,686000000.0,132.0,15
278.0,25.60793437957,60,0.036,7.77e-09,686000000.0,132.0,15
279.0,25.62142829894,60,0.036,7.77e-09,686000000.0,132.0,15
280.0,25.63492221831,60,0.036,7.77e-09,686000000.0,132.0,15
281.0,25.64841613768,60,0.036,7.77e-09,686000000.0,132.0,15
282.0,25.66191005705,60,0.036,7.77e-09,686000000.0,132.0,15
283.0,25.67540397642,60,0.036,7.77e-09,686000000.0,132.0,15
284.0,25.68889789579,60,0.036,7.77e-09,686000000.0,132.0,15
285.0,25.70239181516,60,0.036,7.77e-09,686000000.0,132.0,15
286.0,25.71588573453,60,0.036,7.77e-09,686000000.0,132.0,15
287.0,25.7293796539,60,0.036,7.77e-09,686000000.0,132.0,15
288.0,25.74282073972,60,0.036,7.77e-09,686000000.0,132.0,15
289.0,25.75626182554,60,0.036,7.77e-09,686000000.0,132.0,15
290.0,25.76970291136,60,0.036,7.77e-09,686000000.0,132.0,15
291.0,25.78314399718,60,0.036,7.77e-09,686000000.0,132.0,15
292.0,25.796585083,60,0.036,7.77e-09,686000000.0,132.0,15
293.0,25.81002616882,60,0.036,7.77e-09,686000000.0,132.0,15
294.0,25.82346725464,60,0.036,7.77e-09,686000000.0,132.0,15
295.0,25.83690834046,60,0.036,7.77e-09,686000000.0,132.0,15
296.0,25.85034942628,60,0.036,7.77e-09,686000000.0,132.0,15
297.0,25.8637905121,60,0.036,7.77e-09,686000000.0,132.0,15
298.0,25.87717876436,60,0.036,7.77e-09,686000000.0,132.0,15
299.0,25.89056701662,60,0.036,7.77e-09,686000000.0,132.0,15
300.0,25.90395526888,60,0.036,7.77e-09,686000000.0,132.0,15
301.0,25.91734352114,60,0.036,7.77e-09,686000000.0,132.0,15
302.0,25.9307317734,60,0.036,7.77e-09,686000000.0,132.0,15
303.0,25.94412002566,60,0.036,7.77e-09,686000000.0,132.0,15
304.0,25.95750827792,60,0.036,7.77e-09,686000000.0,132.0,15
305.0,25.97089653018,60,0.036,7.77e-09,686000000.0,132.0,15
306.0,25.98428478244,60,0.036,7.77e-09,686000000.0,132.0,15
307.0,25.9976730347,60,0.036,7.77e-09,686000000.0,132.0,15
308.0,26.01100883487,60,0.036,7.77e-09,686000000.0,132.0,15
309.0,26.02434463504,60,0.036,7.77e-09,686000000.0,132.0,15
310.0,26.03768043521,60,0.036,7.77e-09,686000000.0,132.0,15
311.0,26.05101623538,60,0.036,7.77e-09,686000000.0,132.0,15
312.0,26.06435203555,60,0.036,7.77e-09,686000000.0,132.0,15
313.0,26.07768783572,60,0.036,7.77e-09,686000000.0,132.0,15
314.0,26.09102363589,60,0.036,7.77e-09,686000000.0,132.0,15
315.0,26.10435943606,60,0.036,7.77e-09,686000000.0,132.0,15
316.0,26.11769523623,60,0.036,7.77e-09,686000000.0,132.0,15
317.0,26.1310310364,60,0.036,7.77e-09,686000000.0,132.0,15
318.0,26.14431457522,60,0.036,7.77e-09,686000000.0,132.0,15
319.0,26.15759811404,60,0.036,7.77e-09,686000000.0,132.0,15
320.0,26.17088165286,60,0.036,7.77e-09,686000000.0,132.0,15
321.0,26.18416519168,60,0.036,7.77e-09,686000000.0,132.0,15
322.0,26.1974487305,60,0.036,7.77e-09,686000000.0,132.0,15
323.0,26.21073226932,60,0.036,7.77e-09,686000000.0,132.0,15
324.0,26.22401580814,60,0.036,7.77e-09,686000000.0,132.0,15
325.0,26.23729934696,60,0.036,7.77e-09,686000000.0,132.0,15
326.0,26.25058288578,60,0.036,7.77e-09,686000000.0,132.0,15
327.0,26.2638664246,60,0.036,7.77e-09,686000000.0,132.0,15
328.0,26.27709770206,60,0.036,7.77e-09,686000000.0,132.0,15
329.0,26.29032897952,60,0.036,7.77e-09,686000000.0,132.0,15
330.0,26.30356025698,60,0.036,7.77e-09,686000000.0,132.0,15
