time,T_int,T_ext_1,Film_Coef,Density,Specific_Heat,Thermal_Conductivity,Radius
1.0,21.9728507996,22.88,0.036,7.47e-09,186000000.0,152.0,25
2.0,21.9515399933,23.76,0.036,7.47e-09,186000000.0,152.0,25
3.0,21.9332771301,24.64,0.036,7.47e-09,186000000.0,152.0,25
4.0,21.9186220169,25.52,0.036,7.47e-09,186000000.0,152.0,25
5.0,21.9039669037,26.4,0.036,7.47e-09,186000000.0,152.0,25
6.0,21.89488220215,27.28,0.036,7.47e-09,186000000.0,152.0,25
7.0,21.8857975006,28.16,0.036,7.47e-09,186000000.0,152.0,25
8.0,21.87671279905,29.04,0.036,7.47e-09,186000000.0,152.0,25
9.0,21.8676280975,29.92,0.036,7.47e-09,186000000.0,152.0,25
10.0,21.868915081,30.8,0.036,7.47e-09,186000000.0,152.0,25
11.0,21.8702020645,31.68,0.036,7.47e-09,186000000.0,152.0,25
12.0,21.871489048,32.56,0.036,7.47e-09,186000000.0,152.0,25
13.0,21.8727760315,33.44,0.036,7.47e-09,186000000.0,152.0,25
14.0,21.874063015,34.32,0.036,7.47e-09,186000000.0,152.0,25
15.0,21.8753499985,35.2,0.036,7.47e-09,186000000.0,152.0,25
16.0,21.876636982,36.08,0.036,7.47e-09,186000000.0,152.0,25
17.0,21.8779239655,36.96,0.036,7.47e-09,186000000.0,152.0,25
18.0,21.89202346806,37.84,0.036,7.47e-09,186000000.0,152.0,25
19.0,21.90612297062,38.72,0.036,7.47e-09,186000000.0,152.0,25
20.0,21.92022247318,39.6,0.036,7.47e-09,186000000.0,152.0,25
21.0,21.93432197574,40.48,0.036,7.47e-09,186000000.0,152.0,25
22.0,21.9484214783,41.36,0.036,7.47e-09,186000000.0,152.0,25
23.0,21.96252098086,42.24,0.036,7.47e-09,186000000.0,152.0,25
24.0,21.97662048342,43.12,0.036,7.47e-09,186000000.0,152.0,25
25.0,21.99071998598,44.0,0.036,7.47e-09,186000000.0,152.0,25
26.0,22.00481948854,44.88,0.036,7.47e-09,186000000.0,152.0,25
27.0,22.0189189911,45.76,0.036,7.47e-09,186000000.0,152.0,25
28.0,22.0457473755,46.64,0.036,7.47e-09,186000000.0,152.0,25
29.0,22.0725757599,47.52,0.036,7.47e-09,186000000.0,152.0,25
30.0,22.0994041443,48.4,0.036,7.47e-09,186000000.0,152.0,25
31.0,22.1262325287,49.28,0.036,7.47e-09,186000000.0,152.0,25
32.0,22.1530609131,50.16,0.036,7.47e-09,186000000.0,152.0,25
33.0,22.1798892975,51.04,0.036,7.47e-09,186000000.0,152.0,25
34.0,22.2067176819,51.92,0.036,7.47e-09,186000000.0,152.0,25
35.0,22.2335460663,52.8,0.036,7.47e-09,186000000.0,152.0,25
36.0,22.2603744507,53.68,0.036,7.47e-09,186000000.0,152.0,25
37.0,22.2872028351,54.56,0.036,7.47e-09,186000000.0,152.0,25
38.0,22.32665901186,55.44,0.036,7.47e-09,186000000.0,152.0,25
39.0,22.36611518862,56.32,0.036,7.47e-09,186000000.0,152.0,25
40.0,22.40557136538,57.2,0.036,7.47e-09,186000000.0,152.0,25
41.0,22.44502754214,58.08,0.036,7.47e-09,186000000.0,152.0,25
42.0,22.4844837189,58.96,0.036,7.47e-09,186000000.0,152.0,25
43.0,22.52393989566,59.84,0.036,7.47e-09,186000000.0,152.0,25
44.0,22.56339607242,60.72,0.036,7.47e-09,186000000.0,152.0,25
45.0,22.60285224918,61.6,0.036,7.47e-09,186000000.0,152.0,25
46.0,22.64230842594,62.48,0.036,7.47e-09,186000000.0,152.0,25
47.0,22.6817646027,63.36,0.036,7.47e-09,186000000.0,152.0,25
48.0,22.72340183262,64.24,0.036,7.47e-09,186000000.0,152.0,25
49.0,22.76503906254,65.12,0.036,7.47e-09,186000000.0,152.0,25
50.0,22.80667629246,66.0,0.036,7.47e-09,186000000.0,152.0,25
51.0,22.84831352238,62.94,0.036,7.47e-09,186000000.0,152.0,25
52.0,22.8899507523,62.88,0.036,7.47e-09,186000000.0,152.0,25
53.0,22.93158798222,62.82,0.036,7.47e-09,186000000.0,152.0,25
54.0,22.97322521214,62.76,0.036,7.47e-09,186000000.0,152.0,25
55.0,23.01486244206,62.7,0.036,7.47e-09,186000000.0,152.0,25
56.0,23.05649967198,62.64,0.036,7.47e-09,186000000.0,152.0,25
57.0,23.0981369019,62.58,0.036,7.47e-09,186000000.0,152.0,25
58.0,23.13799018864,62.52,0.036,7.47e-09,186000000.0,152.0,25
59.0,23.17784347538,62.46,0.036,7.47e-09,186000000.0,152.0,25
60.0,23.21769676212,62.4,0.036,7.47e-09,186000000.0,152.0,25
61.0,23.25755004886,62.34,0.036,7.47e-09,186000000.0,152.0,25
62.0,23.2974033356,62.28,0.036,7.47e-09,186000000.0,152.0,25
63.0,23.33725662234,62.22,0.036,7.47e-09,186000000.0,152.0,25
64.0,23.37710990908,62.16,0.036,7.47e-09,186000000.0,152.0,25
65.0,23.41696319582,62.1,0.036,7.47e-09,186000000.0,152.0,25
66.0,23.45681648256,62.04,0.036,7.47e-09,186000000.0,152.0,25
67.0,23.4966697693,61.98,0.036,7.47e-09,186000000.0,152.0,25
68.0,23.53497943879,61.92,0.036,7.47e-09,186000000.0,152.0,25
69.0,23.57328910828,61.86,0.036,7.47e-09,186000000.0,152.0,25
70.0,23.61159877777,61.8,0.036,7.47e-09,186000000.0,152.0,25
71.0,23.64990844726,61.74,0.036,7.47e-09,186000000.0,152.0,25
72.0,23.68821811675,61.68,0.036,7.47e-09,186000000.0,152.0,25
73.0,23.72652778624,61.62,0.036,7.47e-09,186000000.0,152.0,25
74.0,23.76483745573,61.56,0.036,7.47e-09,186000000.0,152.0,25
75.0,23.80314712522,61.5,0.036,7.47e-09,186000000.0,152.0,25
76.0,23.84145679471,61.44,0.036,7.47e-09,186000000.0,152.0,25
77.0,23.8797664642,61.38,0.036,7.47e-09,186000000.0,152.0,25
78.0,23.91654586789,61.32,0.036,7.47e-09,186000000.0,152.0,25
79.0,23.95332527158,61.26,0.036,7.47e-09,186000000.0,152.0,25
80.0,23.99010467527,61.2,0.036,7.47e-09,186000000.0,152.0,25
81.0,24.02688407896,61.14,0.036,7.47e-09,186000000.0,152.0,25
82.0,24.06366348265,61.08,0.036,7.47e-09,186000000.0,152.0,25
83.0,24.10044288634,61.02,0.036,7.47e-09,186000000.0,152.0,25
84.0,24.13722229003,60.96,0.036,7.47e-09,186000000.0,152.0,25
85.0,24.17400169372,60.9,0.036,7.47e-09,186000000.0,152.0,25
86.0,24.21078109741,60.84,0.036,7.47e-09,186000000.0,152.0,25
87.0,24.2475605011,60.78,0.036,7.47e-09,186000000.0,152.0,25
88.0,24.28281497955,60.72,0.036,7.47e-09,186000000.0,152.0,25
89.0,24.318069458,60.66,0.036,7.47e-09,186000000.0,152.0,25
90.0,24.35332393645,60.6,0.036,7.47e-09,186000000.0,152.0,25
91.0,24.3885784149,60.54,0.036,7.47e-09,186000000.0,152.0,25
92.0,24.42383289335,60.48,0.036,7.47e-09,186000000.0,152.0,25
93.0,24.4590873718,60.42,0.036,7.47e-09,186000000.0,152.0,25
94.0,24.49434185025,60.36,0.036,7.47e-09,186000000.0,152.0,25
95.0,24.5295963287,60.3,0.036,7.47e-09,186000000.0,152.0,25
96.0,24.56485080715,60.24,0.036,7.47e-09,186000000.0,152.0,25
97.0,24.6001052856,60.18,0.036,7.47e-09,186000000.0,152.0,25
98.0,24.63470630642,60.12,0.036,7.47e-09,186000000.0,152.0,25
99.0,24.66930732724,60.06,0.036,7.47e-09,186000000.0,152.0,25
100.0,24.70390834806,60.0,0.036,7.47e-09,186000000.0,152.0,25
101.0,24.73850936888,60,0.036,7.47e-09,186000000.0,152.0,25
102.0,24.7731103897,60,0.036,7.47e-09,186000000.0,152.0,25
103.0,24.80771141052,60,0.036,7.47e-09,186000000.0,152.0,25
104.0,24.84231243134,60,0.036,7.47e-09,186000000.0,152.0,25
105.0,24.87691345216,60,0.036,7.47e-09,186000000.0,152.0,25
106.0,24.91151447298,60,0.036,7.47e-09,186000000.0,152.0,25
107.0,24.9461154938,60,0.036,7.47e-09,186000000.0,152.0,25
108.0,24.98039627077,60,0.036,7.47e-09,186000000.0,152.0,25
109.0,25.01467704774,60,0.036,7.47e-09,186000000.0,152.0,25
110.0,25.04895782471,60,0.036,7.47e-09,186000000.0,152.0,25
111.0,25.08323860168,60,0.036,7.47e-09,186000000.0,152.0,25
112.0,25.11751937865,60,0.036,7.47e-09,186000000.0,152.0,25
113.0,25.15180015562,60,0.036,7.47e-09,186000000.0,152.0,25
114.0,25.18608093259,60,0.036,7.47e-09,186000000.0,152.0,25
115.0,25.22036170956,60,0.036,7.47e-09,186000000.0,152.0,25
116.0,25.25464248653,60,0.036,7.47e-09,186000000.0,152.0,25
117.0,25.2889232635,60,0.036,7.47e-09,186000000.0,152.0,25
118.0,25.32286758418,60,0.036,7.47e-09,186000000.0,152.0,25
119.0,25.35681190486,60,0.036,7.47e-09,186000000.0,152.0,25
120.0,25.39075622554,60,0.036,7.47e-09,186000000.0,152.0,25
121.0,25.42470054622,60,0.036,7.47e-09,186000000.0,152.0,25
122.0,25.4586448669,60,0.036,7.47e-09,186000000.0,152.0,25
123.0,25.49258918758,60,0.036,7.47e-09,186000000.0,152.0,25
124.0,25.52653350826,60,0.036,7.47e-09,186000000.0,152.0,25
125.0,25.56047782894,60,0.036,7.47e-09,186000000.0,152.0,25
126.0,25.59442214962,60,0.036,7.47e-09,186000000.0,152.0,25
127.0,25.6283664703,60,0.036,7.47e-09,186000000.0,152.0,25
128.0,25.66197757718,60,0.036,7.47e-09,186000000.0,152.0,25
129.0,25.69558868406,60,0.036,7.47e-09,186000000.0,152.0,25
130.0,25.72919979094,60,0.036,7.47e-09,186000000.0,152.0,25
131.0,25.76281089782,60,0.036,7.47e-09,186000000.0,152.0,25
132.0,25.7964220047,60,0.036,7.47e-09,186000000.0,152.0,25
133.0,25.83003311158,60,0.036,7.47e-09,186000000.0,152.0,25
134.0,25.86364421846,60,0.036,7.47e-09,186000000.0,152.0,25
135.0,25.89725532534,60,0.036,7.47e-09,186000000.0,152.0,25
136.0,25.93086643222,60,0.036,7.47e-09,186000000.0,152.0,25
137.0,25.9644775391,60,0.036,7.47e-09,186000000.0,152.0,25
138.0,25.99775943759,60,0.036,7.47e-09,186000000.0,152.0,25
139.0,26.03104133608,60,0.036,7.47e-09,186000000.0,152.0,25
140.0,26.06432323457,60,0.036,7.47e-09,186000000.0,152.0,25
141.0,26.09760513306,60,0.036,7.47e-09,186000000.0,152.0,25
142.0,26.13088703155,60,0.036,7.47e-09,186000000.0,152.0,25
143.0,26.16416893004,60,0.036,7.47e-09,186000000.0,152.0,25
144.0,26.19745082853,60,0.036,7.47e-09,186000000.0,152.0,25
145.0,26.23073272702,60,0.036,7.47e-09,186000000.0,152.0,25
146.0,26.26401462551,60,0.036,7.47e-09,186000000.0,152.0,25
147.0,26.297296524,60,0.036,7.47e-09,186000000.0,152.0,25
148.0,26.33025264736,60,0.036,7.47e-09,186000000.0,152.0,25
149.0,26.36320877072,60,0.036,7.47e-09,186000000.0,152.0,25
150.0,26.39616489408,60,0.036,7.47e-09,186000000.0,152.0,25
151.0,26.42912101744,60,0.036,7.47e-09,186000000.0,152.0,25
152.0,26.4620771408,60,0.036,7.47e-09,186000000.0,152.0,25
153.0,26.49503326416,60,0.036,7.47e-09,186000000.0,152.0,25
154.0,26.52798938752,60,0.036,7.47e-09,186000000.0,152.0,25
155.0,26.56094551088,60,0.036,7.47e-09,186000000.0,152.0,25
156.0,26.59390163424,60,0.036,7.47e-09,186000000.0,152.0,25
157.0,26.6268577576,60,0.036,7.47e-09,186000000.0,152.0,25
158.0,26.65949153903,60,0.036,7.47e-09,186000000.0,152.0,25
159.0,26.69212532046,60,0.036,7.47e-09,186000000.0,152.0,25
160.0,26.72475910189,60,0.036,7.47e-09,186000000.0,152.0,25
161.0,26.75739288332,60,0.036,7.47e-09,186000000.0,152.0,25
162.0,26.79002666475,60,0.036,7.47e-09,186000000.0,152.0,25
163.0,26.82266044618,60,0.036,7.47e-09,186000000.0,152.0,25
164.0,26.85529422761,60,0.036,7.47e-09,186000000.0,152.0,25
165.0,26.88792800904,60,0.036,7.47e-09,186000000.0,152.0,25
166.0,26.92056179047,60,0.036,7.47e-09,186000000.0,152.0,25
167.0,26.9531955719,60,0.036,7.47e-09,186000000.0,152.0,25
168.0,26.98551025391,60,0.036,7.47e-09,186000000.0,152.0,25
169.0,27.01782493592,60,0.036,7.47e-09,186000000.0,152.0,25
170.0,27.05013961793,60,0.036,7.47e-09,186000000.0,152.0,25
171.0,27.08245429994,60,0.036,7.47e-09,186000000.0,152.0,25
172.0,27.11476898195,60,0.036,7.47e-09,186000000.0,152.0,25
173.0,27.14708366396,60,0.036,7.47e-09,186000000.0,152.0,25
174.0,27.17939834597,60,0.036,7.47e-09,186000000.0,152.0,25
175.0,27.21171302798,60,0.036,7.47e-09,186000000.0,152.0,25
176.0,27.24402770999,60,0.036,7.47e-09,186000000.0,152.0,25
177.0,27.276342392,60,0.036,7.47e-09,186000000.0,152.0,25
178.0,27.30834102634,60,0.036,7.47e-09,186000000.0,152.0,25
179.0,27.34033966068,60,0.036,7.47e-09,186000000.0,152.0,25
180.0,27.37233829502,60,0.036,7.47e-09,186000000.0,152.0,25
181.0,27.40433692936,60,0.036,7.47e-09,186000000.0,152.0,25
182.0,27.4363355637,60,0.036,7.47e-09,186000000.0,152.0,25
183.0,27.46833419804,60,0.036,7.47e-09,186000000.0,152.0,25
184.0,27.50033283238,60,0.036,7.47e-09,186000000.0,152.0,25
185.0,27.53233146672,60,0.036,7.47e-09,186000000.0,152.0,25
186.0,27.56433010106,60,0.036,7.47e-09,186000000.0,152.0,25
187.0,27.5963287354,60,0.036,7.47e-09,186000000.0,152.0,25
188.0,27.62801437382,60,0.036,7.47e-09,186000000.0,152.0,25
189.0,27.65970001224,60,0.036,7.47e-09,186000000.0,152.0,25
190.0,27.69138565066,60,0.036,7.47e-09,186000000.0,152.0,25
191.0,27.72307128908,60,0.036,7.47e-09,186000000.0,152.0,25
192.0,27.7547569275,60,0.036,7.47e-09,186000000.0,152.0,25
193.0,27.78644256592,60,0.036,7.47e-09,186000000.0,152.0,25
194.0,27.81812820434,60,0.036,7.47e-09,186000000.0,152.0,25
195.0,27.84981384276,60,0.036,7.47e-09,186000000.0,152.0,25
196.0,27.88149948118,60,0.036,7.47e-09,186000000.0,152.0,25
197.0,27.9131851196,60,0.036,7.47e-09,186000000.0,152.0,25
198.0,27.94456100461,60,0.036,7.47e-09,186000000.0,152.0,25
199.0,27.97593688962,60,0.036,7.47e-09,186000000.0,152.0,25
200.0,28.00731277463,60,0.036,7.47e-09,186000000.0,152.0,25
201.0,28.03868865964,60,0.036,7.47e-09,186000000.0,152.0,25
202.0,28.07006454465,60,0.036,7.47e-09,186000000.0,152.0,25
203.0,28.10144042966,60,0.036,7.47e-09,186000000.0,152.0,25
204.0,28.13281631467,60,0.036,7.47e-09,186000000.0,152.0,25
205.0,28.16419219968,60,0.036,7.47e-09,186000000.0,152.0,25
206.0,28.19556808469,60,0.036,7.47e-09,186000000.0,152.0,25
207.0,28.2269439697,60,0.036,7.47e-09,186000000.0,152.0,25
208.0,28.25801315305,60,0.036,7.47e-09,186000000.0,152.0,25
209.0,28.2890823364,60,0.036,7.47e-09,186000000.0,152.0,25
210.0,28.32015151975,60,0.036,7.47e-09,186000000.0,152.0,25
211.0,28.3512207031,60,0.036,7.47e-09,186000000.0,152.0,25
212.0,28.38228988645,60,0.036,7.47e-09,186000000.0,152.0,25
213.0,28.4133590698,60,0.036,7.47e-09,186000000.0,152.0,25
214.0,28.44442825315,60,0.036,7.47e-09,186000000.0,152.0,25
215.0,28.4754974365,60,0.036,7.47e-09,186000000.0,152.0,25
216.0,28.50656661985,60,0.036,7.47e-09,186000000.0,152.0,25
217.0,28.5376358032,60,0.036,7.47e-09,186000000.0,152.0,25
218.0,28.56840095518,60,0.036,7.47e-09,186000000.0,152.0,25
219.0,28.59916610716,60,0.036,7.47e-09,186000000.0,152.0,25
220.0,28.62993125914,60,0.036,7.47e-09,186000000.0,152.0,25
221.0,28.66069641112,60,0.036,7.47e-09,186000000.0,152.0,25
222.0,28.6914615631,60,0.036,7.47e-09,186000000.0,152.0,25
223.0,28.72222671508,60,0.036,7.47e-09,186000000.0,152.0,25
224.0,28.75299186706,60,0.036,7.47e-09,186000000.0,152.0,25
225.0,28.78375701904,60,0.036,7.47e-09,186000000.0,152.0,25
226.0,28.81452217102,60,0.036,7.47e-09,186000000.0,152.0,25
227.0,28.845287323,60,0.036,7.47e-09,186000000.0,152.0,25
228.0,28.87575187683,60,0.036,7.47e-09,186000000.0,152.0,25
229.0,28.90621643066,60,0.036,7.47e-09,186000000.0,152.0,25
230.0,28.93668098449,60,0.036,7.47e-09,186000000.0,152.0,25
231.0,28.96714553832,60,0.036,7.47e-09,186000000.0,152.0,25
232.0,28.99761009215,60,0.036,7.47e-09,186000000.0,152.0,25
233.0,29.02807464598,60,0.036,7.47e-09,186000000.0,152.0,25
234.0,29.05853919981,60,0.036,7.47e-09,186000000.0,152.0,25
235.0,29.08900375364,60,0.036,7.47e-09,186000000.0,152.0,25
236.0,29.11946830747,60,0.036,7.47e-09,186000000.0,152.0,25
237.0,29.1499328613,60,0.036,7.47e-09,186000000.0,152.0,25
238.0,29.18009929654,60,0.036,7.47e-09,186000000.0,152.0,25
239.0,29.21026573178,60,0.036,7.47e-09,186000000.0,152.0,25
240.0,29.24043216702,60,0.036,7.47e-09,186000000.0,152.0,25
241.0,29.27059860226,60,0.036,7.47e-09,186000000.0,152.0,25
242.0,29.3007650375,60,0.036,7.47e-09,186000000.0,152.0,25
243.0,29.33093147274,60,0.036,7.47e-09,186000000.0,152.0,25
244.0,29.36109790798,60,0.036,7.47e-09,186000000.0,152.0,25
245.0,29.39126434322,60,0.036,7.47e-09,186000000.0,152.0,25
246.0,29.42143077846,60,0.036,7.47e-09,186000000.0,152.0,25
247.0,29.4515972137,60,0.036,7.47e-09,186000000.0,152.0,25
248.0,29.48146896358,60,0.036,7.47e-09,186000000.0,152.0,25
249.0,29.51134071346,60,0.036,7.47e-09,186000000.0,152.0,25
250.0,29.54121246334,60,0.036,7.47e-09,186000000.0,152.0,25
251.0,29.57108421322,60,0.036,7.47e-09,186000000.0,152.0,25
252.0,29.6009559631,60,0.036,7.47e-09,186000000.0,152.0,25
253.0,29.63082771298,60,0.036,7.47e-09,186000000.0,152.0,25
254.0,29.66069946286,60,0.036,7.47e-09,186000000.0,152.0,25
255.0,29.69057121274,60,0.036,7.47e-09,186000000.0,152.0,25
256.0,29.72044296262,60,0.036,7.47e-09,186000000.0,152.0,25
257.0,29.7503147125,60,0.036,7.47e-09,186000000.0,152.0,25
258.0,29.77989406583,60,0.036,7.47e-09,186000000.0,152.0,25
259.0,29.80947341916,60,0.036,7.47e-09,186000000.0,152.0,25
260.0,29.83905277249,60,0.036,7.47e-09,186000000.0,152.0,25
261.0,29.86863212582,60,0.036,7.47e-09,186000000.0,152.0,25
262.0,29.89821147915,60,0.036,7.47e-09,186000000.0,152.0,25
263.0,29.92779083248,60,0.036,7.47e-09,186000000.0,152.0,25
264.0,29.95737018581,60,0.036,7.47e-09,186000000.0,152.0,25
265.0,29.98694953914,60,0.036,7.47e-09,186000000.0,152.0,25
266.0,30.01652889247,60,0.036,7.47e-09,186000000.0,152.0,25
267.0,30.0461082458,60,0.036,7.47e-09,186000000.0,152.0,25
268.0,30.07539844508,60,0.036,7.47e-09,186000000.0,152.0,25
269.0,30.10468864436,60,0.036,7.47e-09,186000000.0,152.0,25
270.0,30.13397884364,60,0.036,7.47e-09,186000000.0,152.0,25
271.0,30.16326904292,60,0.036,7.47e-09,186000000.0,152.0,25
272.0,30.1925592422,60,0.036,7.47e-09,186000000.0,152.0,25
273.0,30.22184944148,60,0.036,7.47e-09,186000000.0,152.0,25
274.0,30.25113964076,60,0.036,7.47e-09,186000000.0,152.0,25
275.0,30.28042984004,60,0.036,7.47e-09,186000000.0,152.0,25
276.0,30.30972003932,60,0.036,7.47e-09,186000000.0,152.0,25
277.0,30.3390102386,60,0.036,7.47e-09,186000000.0,152.0,25
278.0,30.36801414485,60,0.036,7.47e-09,186000000.0,152.0,25
279.0,30.3970180511,60,0.036,7.47e-09,186000000.0,152.0,25
280.0,30.42602195735,60,0.036,7.47e-09,186000000.0,152.0,25
281.0,30.4550258636,60,0.036,7.47e-09,186000000.0,152.0,25
282.0,30.48402976985,60,0.036,7.47e-09,186000000.0,152.0,25
283.0,30.5130336761,60,0.036,7.47e-09,186000000.0,152.0,25
284.0,30.54203758235,60,0.036,7.47e-09,186000000.0,152.0,25
285.0,30.5710414886,60,0.036,7.47e-09,186000000.0,152.0,25
286.0,30.60004539485,60,0.036,7.47e-09,186000000.0,152.0,25
287.0,30.6290493011,60,0.036,7.47e-09,186000000.0,152.0,25
288.0,30.65776939388,60,0.036,7.47e-09,186000000.0,152.0,25
289.0,30.68648948666,60,0.036,7.47e-09,186000000.0,152.0,25
290.0,30.71520957944,60,0.036,7.47e-09,186000000.0,152.0,25
291.0,30.74392967222,60,0.036,7.47e-09,186000000.0,152.0,25
292.0,30.772649765,60,0.036,7.47e-09,186000000.0,152.0,25
293.0,30.80136985778,60,0.036,7.47e-09,186000000.0,152.0,25
294.0,30.83008995056,60,0.036,7.47e-09,186000000.0,152.0,25
295.0,30.85881004334,60,0.036,7.47e-09,186000000.0,152.0,25
296.0,30.88753013612,60,0.036,7.47e-09,186000000.0,152.0,25
297.0,30.9162502289,60,0.036,7.47e-09,186000000.0,152.0,25
298.0,30.94468975069,60,0.036,7.47e-09,186000000.0,152.0,25
299.0,30.97312927248,60,0.036,7.47e-09,186000000.0,152.0,25
300.0,31.00156879427,60,0.036,7.47e-09,186000000.0,152.0,25
301.0,31.03000831606,60,0.036,7.47e-09,186000000.0,152.0,25
302.0,31.05844783785,60,0.036,7.47e-09,186000000.0,152.0,25
303.0,31.08688735964,60,0.036,7.47e-09,186000000.0,152.0,25
304.0,31.11532688143,60,0.036,7.47e-09,186000000.0,152.0,25
305.0,31.14376640322,60,0.036,7.47e-09,186000000.0,152.0,25
306.0,31.17220592501,60,0.036,7.47e-09,186000000.0,152.0,25
307.0,31.2006454468,60,0.036,7.47e-09,186000000.0,152.0,25
308.0,31.22880668642,60,0.036,7.47e-09,186000000.0,152.0,25
309.0,31.25696792604,60,0.036,7.47e-09,186000000.0,152.0,25
310.0,31.28512916566,60,0.036,7.47e-09,186000000.0,152.0,25
311.0,31.31329040528,60,0.036,7.47e-09,186000000.0,152.0,25
312.0,31.3414516449,60,0.036,7.47e-09,186000000.0,152.0,25
313.0,31.36961288452,60,0.036,7.47e-09,186000000.0,152.0,25
314.0,31.39777412414,60,0.036,7.47e-09,186000000.0,152.0,25
315.0,31.42593536376,60,0.036,7.47e-09,186000000.0,152.0,25
316.0,31.45409660338,60,0.036,7.47e-09,186000000.0,152.0,25
317.0,31.482257843,60,0.036,7.47e-09,186000000.0,152.0,25
318.0,31.51014366148,60,0.036,7.47e-09,186000000.0,152.0,25
319.0,31.53802947996,60,0.036,7.47e-09,186000000.0,152.0,25
320.0,31.56591529844,60,0.036,7.47e-09,186000000.0,152.0,25
321.0,31.59380111692,60,0.036,7.47e-09,186000000.0,152.0,25
322.0,31.6216869354,60,0.036,7.47e-09,186000000.0,152.0,25
323.0,31.64957275388,60,0.036,7.47e-09,186000000.0,152.0,25
324.0,31.67745857236,60,0.036,7.47e-09,186000000.0,152.0,25
325.0,31.70534439084,60,0.036,7.47e-09,186000000.0,152.0,25
326.0,31.73323020932,60,0.036,7.47e-09,186000000.0,152.0,25
327.0,31.7611160278,60,0.036,7.47e-09,186000000.0,152.0,25
328.0,31.7887294769,60,0.036,7.47e-09,186000000.0,152.0,25
329.0,31.816342926,60,0.036,7.47e-09,186000000.0,152.0,25
330.0,31.8439563751,60,0.036,7.47e-09,186000000.0,152.0,25
