time,T_int,T_ext_1,Film_Coef,Density,Specific_Heat,Thermal_Conductivity,Radius
1.0,21.9196472168,22.88,0.036,7.97e-09,186000000.0,152.0,15
2.0,21.8568077087,23.76,0.036,7.97e-09,186000000.0,152.0,15
3.0,21.8032894135,24.64,0.036,7.97e-09,186000000.0,152.0,15
4.0,21.7607908249,25.52,0.036,7.97e-09,186000000.0,152.0,15
5.0,21.7182922363,26.4,0.036,7.97e-09,186000000.0,152.0,15
6.0,21.692503452275,27.28,0.036,7.97e-09,186000000.0,152.0,15
7.0,21.66671466825,28.16,0.036,7.97e-09,186000000.0,152.0,15
8.0,21.640925884225,29.04,0.036,7.97e-09,186000000.0,152.0,15
9.0,21.6151371002,29.92,0.036,7.97e-09,186000000.0,152.0,15
10.0,21.6197438239875,30.8,0.036,7.97e-09,186000000.0,152.0,15
11.0,21.624350547775,31.68,0.036,7.97e-09,186000000.0,152.0,15
12.0,21.6289572715625,32.56,0.036,7.97e-09,186000000.0,152.0,15
13.0,21.63356399535,33.44,0.036,7.97e-09,186000000.0,152.0,15
14.0,21.6381707191375,34.32,0.036,7.97e-09,186000000.0,152.0,15
15.0,21.642777442925,35.2,0.036,7.97e-09,186000000.0,152.0,15
16.0,21.6473841667125,36.08,0.036,7.97e-09,186000000.0,152.0,15
17.0,21.6519908905,36.96,0.036,7.97e-09,186000000.0,152.0,15
18.0,21.69336624145,37.84,0.036,7.97e-09,186000000.0,152.0,15
19.0,21.7347415924,38.72,0.036,7.97e-09,186000000.0,152.0,15
20.0,21.77611694335,39.6,0.036,7.97e-09,186000000.0,152.0,15
21.0,21.8174922943,40.48,0.036,7.97e-09,186000000.0,152.0,15
22.0,21.85886764525,41.36,0.036,7.97e-09,186000000.0,152.0,15
23.0,21.9002429962,42.24,0.036,7.97e-09,186000000.0,152.0,15
24.0,21.94161834715,43.12,0.036,7.97e-09,186000000.0,152.0,15
25.0,21.9829936981,44.0,0.036,7.97e-09,186000000.0,152.0,15
26.0,22.02436904905,44.88,0.036,7.97e-09,186000000.0,152.0,15
27.0,22.0657444,45.76,0.036,7.97e-09,186000000.0,152.0,15
28.0,22.14296569822,46.64,0.036,7.97e-09,186000000.0,152.0,15
29.0,22.22018699644,47.52,0.036,7.97e-09,186000000.0,152.0,15
30.0,22.29740829466,48.4,0.036,7.97e-09,186000000.0,152.0,15
31.0,22.37462959288,49.28,0.036,7.97e-09,186000000.0,152.0,15
32.0,22.4518508911,50.16,0.036,7.97e-09,186000000.0,152.0,15
33.0,22.52907218932,51.04,0.036,7.97e-09,186000000.0,152.0,15
34.0,22.60629348754,51.92,0.036,7.97e-09,186000000.0,152.0,15
35.0,22.68351478576,52.8,0.036,7.97e-09,186000000.0,152.0,15
36.0,22.76073608398,53.68,0.036,7.97e-09,186000000.0,152.0,15
37.0,22.8379573822,54.56,0.036,7.97e-09,186000000.0,152.0,15
38.0,22.9121555980602,55.44,0.036,7.97e-09,186000000.0,152.0,15
39.0,23.0196336036031,56.32,0.036,7.97e-09,186000000.0,152.0,15
40.0,23.1271116091459,57.2,0.036,7.97e-09,186000000.0,152.0,15
41.0,23.2345896146888,58.08,0.036,7.97e-09,186000000.0,152.0,15
42.0,23.3420676202316,58.96,0.036,7.97e-09,186000000.0,152.0,15
43.0,23.4495456257745,59.84,0.036,7.97e-09,186000000.0,152.0,15
44.3096427917,23.590303421,60.9924856567,0.036,7.97e-09,186000000.0,152.0,15
45.3096427917,23.6775616641288,61.8724856567,0.036,7.97e-09,186000000.0,152.0,15
46.3096427917,23.8039567534145,62.7524856567,0.036,7.97e-09,186000000.0,152.0,15
47.3096427917,23.9303518427003,63.6324856567,0.036,7.97e-09,186000000.0,152.0,15
48.3096427917,24.056746931986,64.5124856567,0.036,7.97e-09,186000000.0,152.0,15
49.3096427917,24.1831420212717,65.3924856567,0.036,7.97e-09,186000000.0,152.0,15
50.3096427917,24.3095371105574,62.9814214325,0.036,7.97e-09,186000000.0,152.0,15
51.6192817688,24.475069046,62.9028430939,0.036,7.97e-09,186000000.0,152.0,15
52.6192817688,24.55751501941,62.8428430939,0.036,7.97e-09,186000000.0,152.0,15
53.6192817688,24.6769401118385,62.7828430939,0.036,7.97e-09,186000000.0,152.0,15
54.6192817688,24.7963652042671,62.7228430939,0.036,7.97e-09,186000000.0,152.0,15
55.6192817688,24.9157902966957,62.6628430939,0.036,7.97e-09,186000000.0,152.0,15
56.6192817688,25.0352153891242,62.6028430939,0.036,7.97e-09,186000000.0,152.0,15
57.6192817688,25.1546404815528,62.5428430939,0.036,7.97e-09,186000000.0,152.0,15
58.9289245605,25.311044693,62.4642645264,0.036,7.97e-09,186000000.0,152.0,15
59.9289245605,25.3899618312165,62.4042645264,0.036,7.97e-09,186000000.0,152.0,15
60.9289245605,25.504274684345,62.3442645264,0.036,7.97e-09,186000000.0,152.0,15
61.9289245605,25.6185875374736,62.2842645264,0.036,7.97e-09,186000000.0,152.0,15
62.9289245605,25.7329003906022,62.2242645264,0.036,7.97e-09,186000000.0,152.0,15
63.9289245605,25.8472132437307,62.1642645264,0.036,7.97e-09,186000000.0,152.0,15
64.9289245605,25.9615260968593,62.1042645264,0.036,7.97e-09,186000000.0,152.0,15
66.2385635376,26.1112346649,62.0256861877,0.036,7.97e-09,186000000.0,152.0,15
67.2385635376,26.1867806291342,61.9656861877,0.036,7.97e-09,186000000.0,152.0,15
68.2385635376,26.2962114872056,61.9056861877,0.036,7.97e-09,186000000.0,152.0,15
69.2385635376,26.405642345277,61.8456861877,0.036,7.97e-09,186000000.0,152.0,15
70.2385635376,26.5150732033485,61.7856861877,0.036,7.97e-09,186000000.0,152.0,15
71.2385635376,26.6245040614199,61.7256861877,0.036,7.97e-09,186000000.0,152.0,15
72.2385635376,26.7339349194913,61.6656861877,0.036,7.97e-09,186000000.0,152.0,15
73.548210144,26.8772506714,61.5871073914,0.036,7.97e-09,186000000.0,152.0,15
74.548210144,26.9494792374473,61.5271073914,0.036,7.97e-09,186000000.0,152.0,15
75.548210144,27.0541035769616,61.4671073914,0.036,7.97e-09,186000000.0,152.0,15
76.548210144,27.1587279164759,61.4071073914,0.036,7.97e-09,186000000.0,152.0,15
77.548210144,27.2633522559902,61.3471073914,0.036,7.97e-09,186000000.0,152.0,15
78.548210144,27.3679765955045,61.2871073914,0.036,7.97e-09,186000000.0,152.0,15
79.548210144,27.4726009350187,61.2271073914,0.036,7.97e-09,186000000.0,152.0,15
80.8578491211,27.609621048,61.1485290527,0.036,7.97e-09,186000000.0,152.0,15
81.8578491211,27.6785819821645,61.0885290527,0.036,7.97e-09,186000000.0,152.0,15
82.8578491211,27.7784730998074,61.0285290527,0.036,7.97e-09,186000000.0,152.0,15
83.8578491211,27.8783642174503,60.9685290527,0.036,7.97e-09,186000000.0,152.0,15
84.8578491211,27.9782553350931,60.9085290527,0.036,7.97e-09,186000000.0,152.0,15
85.8578491211,28.078146452736,60.8485290527,0.036,7.97e-09,186000000.0,152.0,15
86.8578491211,28.1780375703788,60.7885290527,0.036,7.97e-09,186000000.0,152.0,15
88.1674880981,28.3088588715,60.7099507141,0.036,7.97e-09,186000000.0,152.0,15
89.1674880981,28.3746091706187,60.6499507141,0.036,7.97e-09,186000000.0,152.0,15
90.1674880981,28.469849627333,60.5899507141,0.036,7.97e-09,186000000.0,152.0,15
91.1674880981,28.5650900840473,60.5299507141,0.036,7.97e-09,186000000.0,152.0,15
92.1674880981,28.6603305407616,60.4699507141,0.036,7.97e-09,186000000.0,152.0,15
93.1674880981,28.7555709974759,60.4099507141,0.036,7.97e-09,186000000.0,152.0,15
94.1674880981,28.8508114541902,60.3499507141,0.036,7.97e-09,186000000.0,152.0,15
95.4771270752,28.9755420685,60.2713723755,0.036,7.97e-09,186000000.0,152.0,15
96.4771270752,29.0388739097672,60.2113723755,0.036,7.97e-09,186000000.0,152.0,15
97.4771270752,29.1306122019101,60.1513723755,0.036,7.97e-09,186000000.0,152.0,15
98.4771270752,29.2223504940529,60.0913723755,0.036,7.97e-09,186000000.0,152.0,15
99.4771270752,29.3140887861958,60.0313723755,0.036,7.97e-09,186000000.0,152.0,15
100.4771270752,29.4058270783386,60,0.036,7.97e-09,186000000.0,152.0,15
101.4771270752,29.4975653704815,60,0.036,7.97e-09,186000000.0,152.0,15
102.786773682,29.6177101135,60,0.036,7.97e-09,186000000.0,152.0,15
103.786773682,29.679813177886,60,0.036,7.97e-09,186000000.0,152.0,15
104.786773682,29.7697705513717,60,0.036,7.97e-09,186000000.0,152.0,15
105.786773682,29.8597279248574,60,0.036,7.97e-09,186000000.0,152.0,15
106.786773682,29.9496852983431,60,0.036,7.97e-09,186000000.0,152.0,15
107.786773682,30.0396426718289,60,0.036,7.97e-09,186000000.0,152.0,15
108.786773682,30.1296000453146,60,0.036,7.97e-09,186000000.0,152.0,15
110.096412659,30.2474117279,60,0.036,7.97e-09,186000000.0,152.0,15
111.096412659,30.3082298234618,60,0.036,7.97e-09,186000000.0,152.0,15
112.096412659,30.3963258971618,60,0.036,7.97e-09,186000000.0,152.0,15
113.096412659,30.4844219708618,60,0.036,7.97e-09,186000000.0,152.0,15
114.096412659,30.5725180445618,60,0.036,7.97e-09,186000000.0,152.0,15
115.096412659,30.6606141182618,60,0.036,7.97e-09,186000000.0,152.0,15
116.096412659,30.7487101919618,60,0.036,7.97e-09,186000000.0,152.0,15
117.406051636,30.8640842438,60,0.036,7.97e-09,186000000.0,152.0,15
118.406051636,30.9236370281355,60,0.036,7.97e-09,186000000.0,152.0,15
119.406051636,31.009901229707,60,0.036,7.97e-09,186000000.0,152.0,15
120.406051636,31.0961654312784,60,0.036,7.97e-09,186000000.0,152.0,15
121.406051636,31.1824296328498,60,0.036,7.97e-09,186000000.0,152.0,15
122.406051636,31.2686938344212,60,0.036,7.97e-09,186000000.0,152.0,15
123.406051636,31.3549580359927,60,0.036,7.97e-09,186000000.0,152.0,15
124.715698242,31.4679336548,60,0.036,7.97e-09,186000000.0,152.0,15
125.715698242,31.526249639653,60,0.036,7.97e-09,186000000.0,152.0,15
126.715698242,31.6107222958958,60,0.036,7.97e-09,186000000.0,152.0,15
127.715698242,31.6951949521387,60,0.036,7.97e-09,186000000.0,152.0,15
128.715698242,31.7796676083816,60,0.036,7.97e-09,186000000.0,152.0,15
129.715698242,31.8641402646244,60,0.036,7.97e-09,186000000.0,152.0,15
130.715698242,31.9486129208673,60,0.036,7.97e-09,186000000.0,152.0,15
132.025344849,32.0592422485,60,0.036,7.97e-09,186000000.0,152.0,15
133.025344849,32.1163495954905,60,0.036,7.97e-09,186000000.0,152.0,15
134.025344849,32.1990696708334,60,0.036,7.97e-09,186000000.0,152.0,15
135.025344849,32.2817897461762,60,0.036,7.97e-09,186000000.0,152.0,15
136.025344849,32.3645098215191,60,0.036,7.97e-09,186000000.0,152.0,15
137.025344849,32.4472298968619,60,0.036,7.97e-09,186000000.0,152.0,15
138.025344849,32.5299499722048,60,0.036,7.97e-09,186000000.0,152.0,15
139.334976196,32.6382827759,60,0.036,7.97e-09,186000000.0,152.0,15
140.334976196,32.71526832582,60,0.036,7.97e-09,186000000.0,152.0,15
141.334976196,32.79225387574,60,0.036,7.97e-09,186000000.0,152.0,15
142.334976196,32.86923942566,60,0.036,7.97e-09,186000000.0,152.0,15
143.334976196,32.94622497558,60,0.036,7.97e-09,186000000.0,152.0,15
144.334976196,33.0232105255,60,0.036,7.97e-09,186000000.0,152.0,15
145.334976196,33.10019607542,60,0.036,7.97e-09,186000000.0,152.0,15
146.334976196,33.17718162534,60,0.036,7.97e-09,186000000.0,152.0,15
147.334976196,33.25416717526,60,0.036,7.97e-09,186000000.0,152.0,15
148.334976196,33.33115272518,60,0.036,7.97e-09,186000000.0,152.0,15
149.334976196,33.4081382751,60,0.036,7.97e-09,186000000.0,152.0,15
150.334976196,33.48295745845,60,0.036,7.97e-09,186000000.0,152.0,15
151.334976196,33.5577766418,60,0.036,7.97e-09,186000000.0,152.0,15
152.334976196,33.63259582515,60,0.036,7.97e-09,186000000.0,152.0,15
153.334976196,33.7074150085,60,0.036,7.97e-09,186000000.0,152.0,15
154.334976196,33.78223419185,60,0.036,7.97e-09,186000000.0,152.0,15
155.334976196,33.8570533752,60,0.036,7.97e-09,186000000.0,152.0,15
156.334976196,33.93187255855,60,0.036,7.97e-09,186000000.0,152.0,15
157.334976196,34.0066917419,60,0.036,7.97e-09,186000000.0,152.0,15
158.334976196,34.08151092525,60,0.036,7.97e-09,186000000.0,152.0,15
159.334976196,34.1563301086,60,0.036,7.97e-09,186000000.0,152.0,15
160.334976196,34.22904357906,60,0.036,7.97e-09,186000000.0,152.0,15
161.334976196,34.30175704952,60,0.036,7.97e-09,186000000.0,152.0,15
162.334976196,34.37447051998,60,0.036,7.97e-09,186000000.0,152.0,15
163.334976196,34.44718399044,60,0.036,7.97e-09,186000000.0,152.0,15
164.334976196,34.5198974609,60,0.036,7.97e-09,186000000.0,152.0,15
165.334976196,34.59261093136,60,0.036,7.97e-09,186000000.0,152.0,15
166.334976196,34.66532440182,60,0.036,7.97e-09,186000000.0,152.0,15
167.334976196,34.73803787228,60,0.036,7.97e-09,186000000.0,152.0,15
168.334976196,34.81075134274,60,0.036,7.97e-09,186000000.0,152.0,15
169.334976196,34.8834648132,60,0.036,7.97e-09,186000000.0,152.0,15
170.334976196,34.95413284299,60,0.036,7.97e-09,186000000.0,152.0,15
171.334976196,35.02480087278,60,0.036,7.97e-09,186000000.0,152.0,15
172.334976196,35.09546890257,60,0.036,7.97e-09,186000000.0,152.0,15
173.334976196,35.16613693236,60,0.036,7.97e-09,186000000.0,152.0,15
174.334976196,35.23680496215,60,0.036,7.97e-09,186000000.0,152.0,15
175.334976196,35.30747299194,60,0.036,7.97e-09,186000000.0,152.0,15
176.334976196,35.37814102173,60,0.036,7.97e-09,186000000.0,152.0,15
177.334976196,35.44880905152,60,0.036,7.97e-09,186000000.0,152.0,15
178.334976196,35.51947708131,60,0.036,7.97e-09,186000000.0,152.0,15
179.334976196,35.5901451111,60,0.036,7.97e-09,186000000.0,152.0,15
180.334976196,35.6588245392,60,0.036,7.97e-09,186000000.0,152.0,15
181.334976196,35.7275039673,60,0.036,7.97e-09,186000000.0,152.0,15
182.334976196,35.7961833954,60,0.036,7.97e-09,186000000.0,152.0,15
183.334976196,35.8648628235,60,0.036,7.97e-09,186000000.0,152.0,15
184.334976196,35.9335422516,60,0.036,7.97e-09,186000000.0,152.0,15
185.334976196,36.0022216797,60,0.036,7.97e-09,186000000.0,152.0,15
186.334976196,36.0709011078,60,0.036,7.97e-09,186000000.0,152.0,15
187.334976196,36.1395805359,60,0.036,7.97e-09,186000000.0,152.0,15
188.334976196,36.208259964,60,0.036,7.97e-09,186000000.0,152.0,15
189.334976196,36.2769393921,60,0.036,7.97e-09,186000000.0,152.0,15
190.334976196,36.34368629456,60,0.036,7.97e-09,186000000.0,152.0,15
191.334976196,36.41043319702,60,0.036,7.97e-09,186000000.0,152.0,15
192.334976196,36.47718009948,60,0.036,7.97e-09,186000000.0,152.0,15
193.334976196,36.54392700194,60,0.036,7.97e-09,186000000.0,152.0,15
194.334976196,36.6106739044,60,0.036,7.97e-09,186000000.0,152.0,15
195.334976196,36.67742080686,60,0.036,7.97e-09,186000000.0,152.0,15
196.334976196,36.74416770932,60,0.036,7.97e-09,186000000.0,152.0,15
197.334976196,36.81091461178,60,0.036,7.97e-09,186000000.0,152.0,15
198.334976196,36.87766151424,60,0.036,7.97e-09,186000000.0,152.0,15
199.334976196,36.9444084167,60,0.036,7.97e-09,186000000.0,152.0,15
200.334976196,37.00927772518,60,0.036,7.97e-09,186000000.0,152.0,15
201.334976196,37.07414703366,60,0.036,7.97e-09,186000000.0,152.0,15
202.334976196,37.13901634214,60,0.036,7.97e-09,186000000.0,152.0,15
203.334976196,37.20388565062,60,0.036,7.97e-09,186000000.0,152.0,15
204.334976196,37.2687549591,60,0.036,7.97e-09,186000000.0,152.0,15
205.334976196,37.33362426758,60,0.036,7.97e-09,186000000.0,152.0,15
206.334976196,37.39849357606,60,0.036,7.97e-09,186000000.0,152.0,15
207.334976196,37.46336288454,60,0.036,7.97e-09,186000000.0,152.0,15
208.334976196,37.52823219302,60,0.036,7.97e-09,186000000.0,152.0,15
209.334976196,37.5931015015,60,0.036,7.97e-09,186000000.0,152.0,15
210.334976196,37.65614547733,60,0.036,7.97e-09,186000000.0,152.0,15
211.334976196,37.71918945316,60,0.036,7.97e-09,186000000.0,152.0,15
212.334976196,37.78223342899,60,0.036,7.97e-09,186000000.0,152.0,15
213.334976196,37.84527740482,60,0.036,7.97e-09,186000000.0,152.0,15
214.334976196,37.90832138065,60,0.036,7.97e-09,186000000.0,152.0,15
215.334976196,37.97136535648,60,0.036,7.97e-09,186000000.0,152.0,15
216.334976196,38.03440933231,60,0.036,7.97e-09,186000000.0,152.0,15
217.334976196,38.09745330814,60,0.036,7.97e-09,186000000.0,152.0,15
218.334976196,38.16049728397,60,0.036,7.97e-09,186000000.0,152.0,15
219.334976196,38.2235412598,60,0.036,7.97e-09,186000000.0,152.0,15
220.334976196,38.2848114014,60,0.036,7.97e-09,186000000.0,152.0,15
221.334976196,38.346081543,60,0.036,7.97e-09,186000000.0,152.0,15
222.334976196,38.4073516846,60,0.036,7.97e-09,186000000.0,152.0,15
223.334976196,38.4686218262,60,0.036,7.97e-09,186000000.0,152.0,15
224.334976196,38.5298919678,60,0.036,7.97e-09,186000000.0,152.0,15
225.334976196,38.5911621094,60,0.036,7.97e-09,186000000.0,152.0,15
226.334976196,38.652432251,60,0.036,7.97e-09,186000000.0,152.0,15
227.334976196,38.7137023926,60,0.036,7.97e-09,186000000.0,152.0,15
228.334976196,38.7749725342,60,0.036,7.97e-09,186000000.0,152.0,15
229.334976196,38.8362426758,60,0.036,7.97e-09,186000000.0,152.0,15
230.334976196,38.89578857424,60,0.036,7.97e-09,186000000.0,152.0,15
231.334976196,38.95533447268,60,0.036,7.97e-09,186000000.0,152.0,15
232.334976196,39.01488037112,60,0.036,7.97e-09,186000000.0,152.0,15
233.334976196,39.07442626956,60,0.036,7.97e-09,186000000.0,152.0,15
234.334976196,39.133972168,60,0.036,7.97e-09,186000000.0,152.0,15
235.334976196,39.19351806644,60,0.036,7.97e-09,186000000.0,152.0,15
236.334976196,39.25306396488,60,0.036,7.97e-09,186000000.0,152.0,15
237.334976196,39.31260986332,60,0.036,7.97e-09,186000000.0,152.0,15
238.334976196,39.37215576176,60,0.036,7.97e-09,186000000.0,152.0,15
239.334976196,39.4317016602,60,0.036,7.97e-09,186000000.0,152.0,15
240.334976196,39.48957252506,60,0.036,7.97e-09,186000000.0,152.0,15
241.334976196,39.54744338992,60,0.036,7.97e-09,186000000.0,152.0,15
242.334976196,39.60531425478,60,0.036,7.97e-09,186000000.0,152.0,15
243.334976196,39.66318511964,60,0.036,7.97e-09,186000000.0,152.0,15
244.334976196,39.7210559845,60,0.036,7.97e-09,186000000.0,152.0,15
245.334976196,39.77892684936,60,0.036,7.97e-09,186000000.0,152.0,15
246.334976196,39.83679771422,60,0.036,7.97e-09,186000000.0,152.0,15
247.334976196,39.89466857908,60,0.036,7.97e-09,186000000.0,152.0,15
248.334976196,39.95253944394,60,0.036,7.97e-09,186000000.0,152.0,15
249.334976196,40.0104103088,60,0.036,7.97e-09,186000000.0,152.0,15
250.334976196,40.0666522026718,60,0.036,7.97e-09,186000000.0,152.0,15
251.334976196,40.1228949547518,60,0.036,7.97e-09,186000000.0,152.0,15
252.334976196,40.1791377068318,60,0.036,7.97e-09,186000000.0,152.0,15
253.334976196,40.2353804589118,60,0.036,7.97e-09,186000000.0,152.0,15
254.334976196,40.2916232109918,60,0.036,7.97e-09,186000000.0,152.0,15
255.334976196,40.3478659630718,60,0.036,7.97e-09,186000000.0,152.0,15
256.334976196,40.4041087151518,60,0.036,7.97e-09,186000000.0,152.0,15
257.334976196,40.4603514672318,60,0.036,7.97e-09,186000000.0,152.0,15
258.334976196,40.5165942193118,60,0.036,7.97e-09,186000000.0,152.0,15
259.334991455,40.5728378296,60,0.036,7.97e-09,186000000.0,152.0,15
260.334991455,40.62749786378,60,0.036,7.97e-09,186000000.0,152.0,15
261.334991455,40.68215789796,60,0.036,7.97e-09,186000000.0,152.0,15
262.334991455,40.73681793214,60,0.036,7.97e-09,186000000.0,152.0,15
263.334991455,40.79147796632,60,0.036,7.97e-09,186000000.0,152.0,15
264.334991455,40.8461380005,60,0.036,7.97e-09,186000000.0,152.0,15
265.334991455,40.90079803468,60,0.036,7.97e-09,186000000.0,152.0,15
266.334991455,40.95545806886,60,0.036,7.97e-09,186000000.0,152.0,15
267.334991455,41.01011810304,60,0.036,7.97e-09,186000000.0,152.0,15
268.334991455,41.06477813722,60,0.036,7.97e-09,186000000.0,152.0,15
269.334991455,41.1194381714,60,0.036,7.97e-09,186000000.0,152.0,15
270.334991455,41.17256050111,60,0.036,7.97e-09,186000000.0,152.0,15
271.334991455,41.22568283082,60,0.036,7.97e-09,186000000.0,152.0,15
272.334991455,41.27880516053,60,0.036,7.97e-09,186000000.0,152.0,15
273.334991455,41.33192749024,60,0.036,7.97e-09,186000000.0,152.0,15
274.334991455,41.38504981995,60,0.036,7.97e-09,186000000.0,152.0,15
275.334991455,41.43817214966,60,0.036,7.97e-09,186000000.0,152.0,15
276.334991455,41.49129447937,60,0.036,7.97e-09,186000000.0,152.0,15
277.334991455,41.54441680908,60,0.036,7.97e-09,186000000.0,152.0,15
278.334991455,41.59753913879,60,0.036,7.97e-09,186000000.0,152.0,15
279.334991455,41.6506614685,60,0.036,7.97e-09,186000000.0,152.0,15
280.334991455,41.70228919982,60,0.036,7.97e-09,186000000.0,152.0,15
281.334991455,41.75391693114,60,0.036,7.97e-09,186000000.0,152.0,15
282.334991455,41.80554466246,60,0.036,7.97e-09,186000000.0,152.0,15
283.334991455,41.85717239378,60,0.036,7.97e-09,186000000.0,152.0,15
284.334991455,41.9088001251,60,0.036,7.97e-09,186000000.0,152.0,15
285.334991455,41.96042785642,60,0.036,7.97e-09,186000000.0,152.0,15
286.334991455,42.01205558774,60,0.036,7.97e-09,186000000.0,152.0,15
287.334991455,42.06368331906,60,0.036,7.97e-09,186000000.0,152.0,15
288.334991455,42.11531105038,60,0.036,7.97e-09,186000000.0,152.0,15
289.334991455,42.1669387817,60,0.036,7.97e-09,186000000.0,152.0,15
290.334991455,42.21711349484,60,0.036,7.97e-09,186000000.0,152.0,15
