time,T_int,T_ext_1,Film_Coef,Density,Specific_Heat,Thermal_Conductivity,Radius
1.0,21.9996318817,22.88,0.036,2.61e-09,1021000000.0,205.0,25
2.0,21.999080658,23.76,0.036,2.61e-09,1021000000.0,205.0,25
3.0,21.9983062744,24.64,0.036,2.61e-09,1021000000.0,205.0,25
4.0,21.99690914155,25.52,0.036,2.61e-09,1021000000.0,205.0,25
5.0,21.9955120087,26.4,0.036,2.61e-09,1021000000.0,205.0,25
6.0,21.993332862875,27.28,0.036,2.61e-09,1021000000.0,205.0,25
7.0,21.99115371705,28.16,0.036,2.61e-09,1021000000.0,205.0,25
8.0,21.988974571225,29.04,0.036,2.61e-09,1021000000.0,205.0,25
9.0,21.9867954254,29.92,0.036,2.61e-09,1021000000.0,205.0,25
10.0,21.985306501375,30.8,0.036,2.61e-09,1021000000.0,205.0,25
11.0,21.98381757735,31.68,0.036,2.61e-09,1021000000.0,205.0,25
12.0,21.982328653325,32.56,0.036,2.61e-09,1021000000.0,205.0,25
13.0,21.9808397293,33.44,0.036,2.61e-09,1021000000.0,205.0,25
14.0,21.979350805275,34.32,0.036,2.61e-09,1021000000.0,205.0,25
15.0,21.97786188125,35.2,0.036,2.61e-09,1021000000.0,205.0,25
16.0,21.976372957225,36.08,0.036,2.61e-09,1021000000.0,205.0,25
17.0,21.9748840332,36.96,0.036,2.61e-09,1021000000.0,205.0,25
18.0,21.97603149414,37.84,0.036,2.61e-09,1021000000.0,205.0,25
19.0,21.97717895508,38.72,0.036,2.61e-09,1021000000.0,205.0,25
20.0,21.97832641602,39.6,0.036,2.61e-09,1021000000.0,205.0,25
21.0,21.97947387696,40.48,0.036,2.61e-09,1021000000.0,205.0,25
22.0,21.9806213379,41.36,0.036,2.61e-09,1021000000.0,205.0,25
23.0,21.98176879884,42.24,0.036,2.61e-09,1021000000.0,205.0,25
24.0,21.98291625978,43.12,0.036,2.61e-09,1021000000.0,205.0,25
25.0,21.98406372072,44.0,0.036,2.61e-09,1021000000.0,205.0,25
26.0,21.98521118166,44.88,0.036,2.61e-09,1021000000.0,205.0,25
27.0,21.9863586426,45.76,0.036,2.61e-09,1021000000.0,205.0,25
28.0,21.990896225,46.64,0.036,2.61e-09,1021000000.0,205.0,25
29.0,21.9954338074,47.52,0.036,2.61e-09,1021000000.0,205.0,25
30.0,21.9999713898,48.4,0.036,2.61e-09,1021000000.0,205.0,25
31.0,22.0045089722,49.28,0.036,2.61e-09,1021000000.0,205.0,25
32.0,22.0090465546,50.16,0.036,2.61e-09,1021000000.0,205.0,25
33.0,22.013584137,51.04,0.036,2.61e-09,1021000000.0,205.0,25
34.0,22.0181217194,51.92,0.036,2.61e-09,1021000000.0,205.0,25
35.0,22.0226593018,52.8,0.036,2.61e-09,1021000000.0,205.0,25
36.0,22.0271968842,53.68,0.036,2.61e-09,1021000000.0,205.0,25
37.0,22.0317344666,54.56,0.036,2.61e-09,1021000000.0,205.0,25
38.0,22.03997058873,55.44,0.036,2.61e-09,1021000000.0,205.0,25
39.0,22.04820671086,56.32,0.036,2.61e-09,1021000000.0,205.0,25
40.0,22.05644283299,57.2,0.036,2.61e-09,1021000000.0,205.0,25
41.0,22.06467895512,58.08,0.036,2.61e-09,1021000000.0,205.0,25
42.0,22.07291507725,58.96,0.036,2.61e-09,1021000000.0,205.0,25
43.0,22.08115119938,59.84,0.036,2.61e-09,1021000000.0,205.0,25
44.0,22.08938732151,60.72,0.036,2.61e-09,1021000000.0,205.0,25
45.0,22.09762344364,61.6,0.036,2.61e-09,1021000000.0,205.0,25
46.0,22.10585956577,62.48,0.036,2.61e-09,1021000000.0,205.0,25
47.0,22.1140956879,63.36,0.036,2.61e-09,1021000000.0,205.0,25
48.0,22.12478618625,64.24,0.036,2.61e-09,1021000000.0,205.0,25
49.0,22.1354766846,65.12,0.036,2.61e-09,1021000000.0,205.0,25
50.0,22.14616718295,66.0,0.036,2.61e-09,1021000000.0,205.0,25
51.0,22.1568576813,62.94,0.036,2.61e-09,1021000000.0,205.0,25
52.0,22.16754817965,62.88,0.036,2.61e-09,1021000000.0,205.0,25
53.0,22.178238678,62.82,0.036,2.61e-09,1021000000.0,205.0,25
54.0,22.18892917635,62.76,0.036,2.61e-09,1021000000.0,205.0,25
55.0,22.1996196747,62.7,0.036,2.61e-09,1021000000.0,205.0,25
56.0,22.21031017305,62.64,0.036,2.61e-09,1021000000.0,205.0,25
57.0,22.2210006714,62.58,0.036,2.61e-09,1021000000.0,205.0,25
58.0,22.23273315431,62.52,0.036,2.61e-09,1021000000.0,205.0,25
59.0,22.24446563722,62.46,0.036,2.61e-09,1021000000.0,205.0,25
60.0,22.25619812013,62.4,0.036,2.61e-09,1021000000.0,205.0,25
61.0,22.26793060304,62.34,0.036,2.61e-09,1021000000.0,205.0,25
62.0,22.27966308595,62.28,0.036,2.61e-09,1021000000.0,205.0,25
63.0,22.29139556886,62.22,0.036,2.61e-09,1021000000.0,205.0,25
64.0,22.30312805177,62.16,0.036,2.61e-09,1021000000.0,205.0,25
65.0,22.31486053468,62.1,0.036,2.61e-09,1021000000.0,205.0,25
66.0,22.32659301759,62.04,0.036,2.61e-09,1021000000.0,205.0,25
67.0,22.3383255005,61.98,0.036,2.61e-09,1021000000.0,205.0,25
68.0,22.35031700135,61.92,0.036,2.61e-09,1021000000.0,205.0,25
69.0,22.3623085022,61.86,0.036,2.61e-09,1021000000.0,205.0,25
70.0,22.37430000305,61.8,0.036,2.61e-09,1021000000.0,205.0,25
71.0,22.3862915039,61.74,0.036,2.61e-09,1021000000.0,205.0,25
72.0,22.39828300475,61.68,0.036,2.61e-09,1021000000.0,205.0,25
73.0,22.4102745056,61.62,0.036,2.61e-09,1021000000.0,205.0,25
74.0,22.42226600645,61.56,0.036,2.61e-09,1021000000.0,205.0,25
75.0,22.4342575073,61.5,0.036,2.61e-09,1021000000.0,205.0,25
76.0,22.44624900815,61.44,0.036,2.61e-09,1021000000.0,205.0,25
77.0,22.458240509,61.38,0.036,2.61e-09,1021000000.0,205.0,25
78.0,22.47012844083,61.32,0.036,2.61e-09,1021000000.0,205.0,25
79.0,22.48201637266,61.26,0.036,2.61e-09,1021000000.0,205.0,25
80.0,22.49390430449,61.2,0.036,2.61e-09,1021000000.0,205.0,25
81.0,22.50579223632,61.14,0.036,2.61e-09,1021000000.0,205.0,25
82.0,22.51768016815,61.08,0.036,2.61e-09,1021000000.0,205.0,25
83.0,22.52956809998,61.02,0.036,2.61e-09,1021000000.0,205.0,25
84.0,22.54145603181,60.96,0.036,2.61e-09,1021000000.0,205.0,25
85.0,22.55334396364,60.9,0.036,2.61e-09,1021000000.0,205.0,25
86.0,22.56523189547,60.84,0.036,2.61e-09,1021000000.0,205.0,25
87.0,22.5771198273,60.78,0.036,2.61e-09,1021000000.0,205.0,25
88.0,22.5887477875,60.72,0.036,2.61e-09,1021000000.0,205.0,25
89.0,22.6003757477,60.66,0.036,2.61e-09,1021000000.0,205.0,25
90.0,22.6120037079,60.6,0.036,2.61e-09,1021000000.0,205.0,25
91.0,22.6236316681,60.54,0.036,2.61e-09,1021000000.0,205.0,25
92.0,22.6352596283,60.48,0.036,2.61e-09,1021000000.0,205.0,25
93.0,22.6468875885,60.42,0.036,2.61e-09,1021000000.0,205.0,25
94.0,22.6585155487,60.36,0.036,2.61e-09,1021000000.0,205.0,25
95.0,22.6701435089,60.3,0.036,2.61e-09,1021000000.0,205.0,25
96.0,22.6817714691,60.24,0.036,2.61e-09,1021000000.0,205.0,25
97.0,22.6933994293,60.18,0.036,2.61e-09,1021000000.0,205.0,25
98.0,22.70481376646,60.12,0.036,2.61e-09,1021000000.0,205.0,25
99.0,22.71622810362,60.06,0.036,2.61e-09,1021000000.0,205.0,25
100.0,22.72764244078,60.0,0.036,2.61e-09,1021000000.0,205.0,25
101.0,22.73905677794,60,0.036,2.61e-09,1021000000.0,205.0,25
102.0,22.7504711151,60,0.036,2.61e-09,1021000000.0,205.0,25
103.0,22.76188545226,60,0.036,2.61e-09,1021000000.0,205.0,25
104.0,22.77329978942,60,0.036,2.61e-09,1021000000.0,205.0,25
105.0,22.78471412658,60,0.036,2.61e-09,1021000000.0,205.0,25
106.0,22.79612846374,60,0.036,2.61e-09,1021000000.0,205.0,25
107.0,22.8075428009,60,0.036,2.61e-09,1021000000.0,205.0,25
108.0,22.81883449554,60,0.036,2.61e-09,1021000000.0,205.0,25
109.0,22.83012619018,60,0.036,2.61e-09,1021000000.0,205.0,25
110.0,22.84141788482,60,0.036,2.61e-09,1021000000.0,205.0,25
111.0,22.85270957946,60,0.036,2.61e-09,1021000000.0,205.0,25
112.0,22.8640012741,60,0.036,2.61e-09,1021000000.0,205.0,25
113.0,22.87529296874,60,0.036,2.61e-09,1021000000.0,205.0,25
114.0,22.88658466338,60,0.036,2.61e-09,1021000000.0,205.0,25
115.0,22.89787635802,60,0.036,2.61e-09,1021000000.0,205.0,25
116.0,22.90916805266,60,0.036,2.61e-09,1021000000.0,205.0,25
117.0,22.9204597473,60,0.036,2.61e-09,1021000000.0,205.0,25
118.0,22.93168163298,60,0.036,2.61e-09,1021000000.0,205.0,25
119.0,22.94290351866,60,0.036,2.61e-09,1021000000.0,205.0,25
120.0,22.95412540434,60,0.036,2.61e-09,1021000000.0,205.0,25
121.0,22.96534729002,60,0.036,2.61e-09,1021000000.0,205.0,25
122.0,22.9765691757,60,0.036,2.61e-09,1021000000.0,205.0,25
123.0,22.98779106138,60,0.036,2.61e-09,1021000000.0,205.0,25
124.0,22.99901294706,60,0.036,2.61e-09,1021000000.0,205.0,25
125.0,23.01023483274,60,0.036,2.61e-09,1021000000.0,205.0,25
126.0,23.02145671842,60,0.036,2.61e-09,1021000000.0,205.0,25
127.0,23.0326786041,60,0.036,2.61e-09,1021000000.0,205.0,25
128.0,23.04385375974,60,0.036,2.61e-09,1021000000.0,205.0,25
129.0,23.05502891538,60,0.036,2.61e-09,1021000000.0,205.0,25
130.0,23.06620407102,60,0.036,2.61e-09,1021000000.0,205.0,25
131.0,23.07737922666,60,0.036,2.61e-09,1021000000.0,205.0,25
132.0,23.0885543823,60,0.036,2.61e-09,1021000000.0,205.0,25
133.0,23.09972953794,60,0.036,2.61e-09,1021000000.0,205.0,25
134.0,23.11090469358,60,0.036,2.61e-09,1021000000.0,205.0,25
135.0,23.12207984922,60,0.036,2.61e-09,1021000000.0,205.0,25
136.0,23.13325500486,60,0.036,2.61e-09,1021000000.0,205.0,25
137.0,23.1444301605,60,0.036,2.61e-09,1021000000.0,205.0,25
138.0,23.15556831358,60,0.036,2.61e-09,1021000000.0,205.0,25
139.0,23.16670646666,60,0.036,2.61e-09,1021000000.0,205.0,25
140.0,23.17784461974,60,0.036,2.61e-09,1021000000.0,205.0,25
141.0,23.18898277282,60,0.036,2.61e-09,1021000000.0,205.0,25
142.0,23.2001209259,60,0.036,2.61e-09,1021000000.0,205.0,25
143.0,23.21125907898,60,0.036,2.61e-09,1021000000.0,205.0,25
144.0,23.22239723206,60,0.036,2.61e-09,1021000000.0,205.0,25
145.0,23.23353538514,60,0.036,2.61e-09,1021000000.0,205.0,25
146.0,23.24467353822,60,0.036,2.61e-09,1021000000.0,205.0,25
147.0,23.2558116913,60,0.036,2.61e-09,1021000000.0,205.0,25
148.0,23.2669160843,60,0.036,2.61e-09,1021000000.0,205.0,25
149.0,23.2780204773,60,0.036,2.61e-09,1021000000.0,205.0,25
150.0,23.2891248703,60,0.036,2.61e-09,1021000000.0,205.0,25
151.0,23.3002292633,60,0.036,2.61e-09,1021000000.0,205.0,25
152.0,23.3113336563,60,0.036,2.61e-09,1021000000.0,205.0,25
153.0,23.3224380493,60,0.036,2.61e-09,1021000000.0,205.0,25
154.0,23.3335424423,60,0.036,2.61e-09,1021000000.0,205.0,25
155.0,23.3446468353,60,0.036,2.61e-09,1021000000.0,205.0,25
156.0,23.3557512283,60,0.036,2.61e-09,1021000000.0,205.0,25
157.0,23.3668556213,60,0.036,2.61e-09,1021000000.0,205.0,25
158.0,23.37792758938,60,0.036,2.61e-09,1021000000.0,205.0,25
159.0,23.38899955746,60,0.036,2.61e-09,1021000000.0,205.0,25
160.0,23.40007152554,60,0.036,2.61e-09,1021000000.0,205.0,25
161.0,23.41114349362,60,0.036,2.61e-09,1021000000.0,205.0,25
162.0,23.4222154617,60,0.036,2.61e-09,1021000000.0,205.0,25
163.0,23.43328742978,60,0.036,2.61e-09,1021000000.0,205.0,25
164.0,23.44435939786,60,0.036,2.61e-09,1021000000.0,205.0,25
165.0,23.45543136594,60,0.036,2.61e-09,1021000000.0,205.0,25
166.0,23.46650333402,60,0.036,2.61e-09,1021000000.0,205.0,25
167.0,23.4775753021,60,0.036,2.61e-09,1021000000.0,205.0,25
168.0,23.48861503599,60,0.036,2.61e-09,1021000000.0,205.0,25
169.0,23.49965476988,60,0.036,2.61e-09,1021000000.0,205.0,25
170.0,23.51069450377,60,0.036,2.61e-09,1021000000.0,205.0,25
171.0,23.52173423766,60,0.036,2.61e-09,1021000000.0,205.0,25
172.0,23.53277397155,60,0.036,2.61e-09,1021000000.0,205.0,25
173.0,23.54381370544,60,0.036,2.61e-09,1021000000.0,205.0,25
174.0,23.55485343933,60,0.036,2.61e-09,1021000000.0,205.0,25
175.0,23.56589317322,60,0.036,2.61e-09,1021000000.0,205.0,25
176.0,23.57693290711,60,0.036,2.61e-09,1021000000.0,205.0,25
177.0,23.587972641,60,0.036,2.61e-09,1021000000.0,205.0,25
178.0,23.59898033143,60,0.036,2.61e-09,1021000000.0,205.0,25
179.0,23.60998802186,60,0.036,2.61e-09,1021000000.0,205.0,25
180.0,23.62099571229,60,0.036,2.61e-09,1021000000.0,205.0,25
181.0,23.63200340272,60,0.036,2.61e-09,1021000000.0,205.0,25
182.0,23.64301109315,60,0.036,2.61e-09,1021000000.0,205.0,25
183.0,23.65401878358,60,0.036,2.61e-09,1021000000.0,205.0,25
184.0,23.66502647401,60,0.036,2.61e-09,1021000000.0,205.0,25
185.0,23.67603416444,60,0.036,2.61e-09,1021000000.0,205.0,25
186.0,23.68704185487,60,0.036,2.61e-09,1021000000.0,205.0,25
187.0,23.6980495453,60,0.036,2.61e-09,1021000000.0,205.0,25
188.0,23.70902519227,60,0.036,2.61e-09,1021000000.0,205.0,25
189.0,23.72000083924,60,0.036,2.61e-09,1021000000.0,205.0,25
190.0,23.73097648621,60,0.036,2.61e-09,1021000000.0,205.0,25
191.0,23.74195213318,60,0.036,2.61e-09,1021000000.0,205.0,25
192.0,23.75292778015,60,0.036,2.61e-09,1021000000.0,205.0,25
193.0,23.76390342712,60,0.036,2.61e-09,1021000000.0,205.0,25
194.0,23.77487907409,60,0.036,2.61e-09,1021000000.0,205.0,25
195.0,23.78585472106,60,0.036,2.61e-09,1021000000.0,205.0,25
196.0,23.79683036803,60,0.036,2.61e-09,1021000000.0,205.0,25
197.0,23.807806015,60,0.036,2.61e-09,1021000000.0,205.0,25
198.0,23.81874942778,60,0.036,2.61e-09,1021000000.0,205.0,25
199.0,23.82969284056,60,0.036,2.61e-09,1021000000.0,205.0,25
200.0,23.84063625334,60,0.036,2.61e-09,1021000000.0,205.0,25
201.0,23.85157966612,60,0.036,2.61e-09,1021000000.0,205.0,25
202.0,23.8625230789,60,0.036,2.61e-09,1021000000.0,205.0,25
203.0,23.87346649168,60,0.036,2.61e-09,1021000000.0,205.0,25
204.0,23.88440990446,60,0.036,2.61e-09,1021000000.0,205.0,25
205.0,23.89535331724,60,0.036,2.61e-09,1021000000.0,205.0,25
206.0,23.90629673002,60,0.036,2.61e-09,1021000000.0,205.0,25
207.0,23.9172401428,60,0.036,2.61e-09,1021000000.0,205.0,25
208.0,23.92815132139,60,0.036,2.61e-09,1021000000.0,205.0,25
209.0,23.93906249998,60,0.036,2.61e-09,1021000000.0,205.0,25
210.0,23.94997367857,60,0.036,2.61e-09,1021000000.0,205.0,25
211.0,23.96088485716,60,0.036,2.61e-09,1021000000.0,205.0,25
212.0,23.97179603575,60,0.036,2.61e-09,1021000000.0,205.0,25
213.0,23.98270721434,60,0.036,2.61e-09,1021000000.0,205.0,25
214.0,23.99361839293,60,0.036,2.61e-09,1021000000.0,205.0,25
215.0,24.00452957152,60,0.036,2.61e-09,1021000000.0,205.0,25
216.0,24.01544075011,60,0.036,2.61e-09,1021000000.0,205.0,25
217.0,24.0263519287,60,0.036,2.61e-09,1021000000.0,205.0,25
218.0,24.03723068236,60,0.036,2.61e-09,1021000000.0,205.0,25
219.0,24.04810943602,60,0.036,2.61e-09,1021000000.0,205.0,25
220.0,24.05898818968,60,0.036,2.61e-09,1021000000.0,205.0,25
221.0,24.06986694334,60,0.036,2.61e-09,1021000000.0,205.0,25
222.0,24.080745697,60,0.036,2.61e-09,1021000000.0,205.0,25
223.0,24.09162445066,60,0.036,2.61e-09,1021000000.0,205.0,25
224.0,24.10250320432,60,0.036,2.61e-09,1021000000.0,205.0,25
225.0,24.11338195798,60,0.036,2.61e-09,1021000000.0,205.0,25
226.0,24.12426071164,60,0.036,2.61e-09,1021000000.0,205.0,25
227.0,24.1351394653,60,0.036,2.61e-09,1021000000.0,205.0,25
228.0,24.14598579404,60,0.036,2.61e-09,1021000000.0,205.0,25
229.0,24.15683212278,60,0.036,2.61e-09,1021000000.0,205.0,25
230.0,24.16767845152,60,0.036,2.61e-09,1021000000.0,205.0,25
231.0,24.17852478026,60,0.036,2.61e-09,1021000000.0,205.0,25
232.0,24.189371109,60,0.036,2.61e-09,1021000000.0,205.0,25
233.0,24.20021743774,60,0.036,2.61e-09,1021000000.0,205.0,25
234.0,24.21106376648,60,0.036,2.61e-09,1021000000.0,205.0,25
235.0,24.22191009522,60,0.036,2.61e-09,1021000000.0,205.0,25
236.0,24.23275642396,60,0.036,2.61e-09,1021000000.0,205.0,25
237.0,24.2436027527,60,0.036,2.61e-09,1021000000.0,205.0,25
238.0,24.25441684724,60,0.036,2.61e-09,1021000000.0,205.0,25
239.0,24.26523094178,60,0.036,2.61e-09,1021000000.0,205.0,25
240.0,24.27604503632,60,0.036,2.61e-09,1021000000.0,205.0,25
241.0,24.28685913086,60,0.036,2.61e-09,1021000000.0,205.0,25
242.0,24.2976732254,60,0.036,2.61e-09,1021000000.0,205.0,25
243.0,24.30848731994,60,0.036,2.61e-09,1021000000.0,205.0,25
244.0,24.31930141448,60,0.036,2.61e-09,1021000000.0,205.0,25
245.0,24.33011550902,60,0.036,2.61e-09,1021000000.0,205.0,25
246.0,24.34092960356,60,0.036,2.61e-09,1021000000.0,205.0,25
247.0,24.3517436981,60,0.036,2.61e-09,1021000000.0,205.0,25
248.0,24.36252536772,60,0.036,2.61e-09,1021000000.0,205.0,25
249.0,24.37330703734,60,0.036,2.61e-09,1021000000.0,205.0,25
250.0,24.38408870696,60,0.036,2.61e-09,1021000000.0,205.0,25
251.0,24.39487037658,60,0.036,2.61e-09,1021000000.0,205.0,25
252.0,24.4056520462,60,0.036,2.61e-09,1021000000.0,205.0,25
253.0,24.41643371582,60,0.036,2.61e-09,1021000000.0,205.0,25
254.0,24.42721538544,60,0.036,2.61e-09,1021000000.0,205.0,25
255.0,24.43799705506,60,0.036,2.61e-09,1021000000.0,205.0,25
256.0,24.44877872468,60,0.036,2.61e-09,1021000000.0,205.0,25
257.0,24.4595603943,60,0.036,2.61e-09,1021000000.0,205.0,25
258.0,24.47030963899,60,0.036,2.61e-09,1021000000.0,205.0,25
259.0,24.48105888368,60,0.036,2.61e-09,1021000000.0,205.0,25
260.0,24.49180812837,60,0.036,2.61e-09,1021000000.0,205.0,25
261.0,24.50255737306,60,0.036,2.61e-09,1021000000.0,205.0,25
262.0,24.51330661775,60,0.036,2.61e-09,1021000000.0,205.0,25
263.0,24.52405586244,60,0.036,2.61e-09,1021000000.0,205.0,25
264.0,24.53480510713,60,0.036,2.61e-09,1021000000.0,205.0,25
265.0,24.54555435182,60,0.036,2.61e-09,1021000000.0,205.0,25
266.0,24.55630359651,60,0.036,2.61e-09,1021000000.0,205.0,25
267.0,24.5670528412,60,0.036,2.61e-09,1021000000.0,205.0,25
268.0,24.5777698517,60,0.036,2.61e-09,1021000000.0,205.0,25
269.0,24.5884868622,60,0.036,2.61e-09,1021000000.0,205.0,25
270.0,24.5992038727,60,0.036,2.61e-09,1021000000.0,205.0,25
271.0,24.6099208832,60,0.036,2.61e-09,1021000000.0,205.0,25
272.0,24.6206378937,60,0.036,2.61e-09,1021000000.0,205.0,25
273.0,24.6313549042,60,0.036,2.61e-09,1021000000.0,205.0,25
274.0,24.6420719147,60,0.036,2.61e-09,1021000000.0,205.0,25
275.0,24.6527889252,60,0.036,2.61e-09,1021000000.0,205.0,25
276.0,24.6635059357,60,0.036,2.61e-09,1021000000.0,205.0,25
277.0,24.6742229462,60,0.036,2.61e-09,1021000000.0,205.0,25
278.0,24.6849077225,60,0.036,2.61e-09,1021000000.0,205.0,25
279.0,24.6955924988,60,0.036,2.61e-09,1021000000.0,205.0,25
280.0,24.7062772751,60,0.036,2.61e-09,1021000000.0,205.0,25
281.0,24.7169620514,60,0.036,2.61e-09,1021000000.0,205.0,25
282.0,24.7276468277,60,0.036,2.61e-09,1021000000.0,205.0,25
283.0,24.738331604,60,0.036,2.61e-09,1021000000.0,205.0,25
284.0,24.7490163803,60,0.036,2.61e-09,1021000000.0,205.0,25
285.0,24.7597011566,60,0.036,2.61e-09,1021000000.0,205.0,25
286.0,24.7703859329,60,0.036,2.61e-09,1021000000.0,205.0,25
287.0,24.7810707092,60,0.036,2.61e-09,1021000000.0,205.0,25
288.0,24.79172344205,60,0.036,2.61e-09,1021000000.0,205.0,25
289.0,24.8023761749,60,0.036,2.61e-09,1021000000.0,205.0,25
290.0,24.81302890775,60,0.036,2.61e-09,1021000000.0,205.0,25
291.0,24.8236816406,60,0.036,2.61e-09,1021000000.0,205.0,25
292.0,24.83433437345,60,0.036,2.61e-09,1021000000.0,205.0,25
293.0,24.8449871063,60,0.036,2.61e-09,1021000000.0,205.0,25
294.0,24.85563983915,60,0.036,2.61e-09,1021000000.0,205.0,25
295.0,24.866292572,60,0.036,2.61e-09,1021000000.0,205.0,25
296.0,24.87694530485,60,0.036,2.61e-09,1021000000.0,205.0,25
297.0,24.8875980377,60,0.036,2.61e-09,1021000000.0,205.0,25
298.0,24.89821853636,60,0.036,2.61e-09,1021000000.0,205.0,25
299.0,24.90883903502,60,0.036,2.61e-09,1021000000.0,205.0,25
300.0,24.91945953368,60,0.036,2.61e-09,1021000000.0,205.0,25
301.0,24.93008003234,60,0.036,2.61e-09,1021000000.0,205.0,25
302.0,24.940700531,60,0.036,2.61e-09,1021000000.0,205.0,25
303.0,24.95132102966,60,0.036,2.61e-09,1021000000.0,205.0,25
304.0,24.96194152832,60,0.036,2.61e-09,1021000000.0,205.0,25
305.0,24.97256202698,60,0.036,2.61e-09,1021000000.0,205.0,25
306.0,24.98318252564,60,0.036,2.61e-09,1021000000.0,205.0,25
307.0,24.9938030243,60,0.036,2.61e-09,1021000000.0,205.0,25
308.0,25.0043914795,60,0.036,2.61e-09,1021000000.0,205.0,25
309.0,25.0149799347,60,0.036,2.61e-09,1021000000.0,205.0,25
310.0,25.0255683899,60,0.036,2.61e-09,1021000000.0,205.0,25
311.0,25.0361568451,60,0.036,2.61e-09,1021000000.0,205.0,25
312.0,25.0467453003,60,0.036,2.61e-09,1021000000.0,205.0,25
313.0,25.0573337555,60,0.036,2.61e-09,1021000000.0,205.0,25
314.0,25.0679222107,60,0.036,2.61e-09,1021000000.0,205.0,25
315.0,25.0785106659,60,0.036,2.61e-09,1021000000.0,205.0,25
316.0,25.0890991211,60,0.036,2.61e-09,1021000000.0,205.0,25
317.0,25.0996875763,60,0.036,2.61e-09,1021000000.0,205.0,25
318.0,25.11024398804,60,0.036,2.61e-09,1021000000.0,205.0,25
319.0,25.12080039978,60,0.036,2.61e-09,1021000000.0,205.0,25
320.0,25.13135681152,60,0.036,2.61e-09,1021000000.0,205.0,25
321.0,25.14191322326,60,0.036,2.61e-09,1021000000.0,205.0,25
322.0,25.152469635,60,0.036,2.61e-09,1021000000.0,205.0,25
323.0,25.16302604674,60,0.036,2.61e-09,1021000000.0,205.0,25
324.0,25.17358245848,60,0.036,2.61e-09,1021000000.0,205.0,25
325.0,25.18413887022,60,0.036,2.61e-09,1021000000.0,205.0,25
