time,T_int,T_ext_1,Film_Coef,Density,Specific_Heat,Thermal_Conductivity,Radius
1.0,21.9874267578,22.88,0.036,7.87e-09,786000000.0,52.0,15
2.0,21.9766120911,23.76,0.036,7.87e-09,786000000.0,52.0,15
3.0,21.9673175812,24.64,0.036,7.87e-09,786000000.0,52.0,15
4.0,21.960392952,25.52,0.036,7.87e-09,786000000.0,52.0,15
5.0,21.9534683228,26.4,0.036,7.87e-09,786000000.0,52.0,15
6.0,21.949928760575,27.28,0.036,7.87e-09,786000000.0,52.0,15
7.0,21.94638919835,28.16,0.036,7.87e-09,786000000.0,52.0,15
8.0,21.942849636125,29.04,0.036,7.87e-09,786000000.0,52.0,15
9.0,21.9393100739,29.92,0.036,7.87e-09,786000000.0,52.0,15
10.0,21.9406812191375,30.8,0.036,7.87e-09,786000000.0,52.0,15
11.0,21.942052364375,31.68,0.036,7.87e-09,786000000.0,52.0,15
12.0,21.9434235096125,32.56,0.036,7.87e-09,786000000.0,52.0,15
13.0,21.94479465485,33.44,0.036,7.87e-09,786000000.0,52.0,15
14.0,21.9461658000875,34.32,0.036,7.87e-09,786000000.0,52.0,15
15.0,21.947536945325,35.2,0.036,7.87e-09,786000000.0,52.0,15
16.0,21.9489080905625,36.08,0.036,7.87e-09,786000000.0,52.0,15
17.0,21.9502792358,36.96,0.036,7.87e-09,786000000.0,52.0,15
18.0,21.95683250424,37.84,0.036,7.87e-09,786000000.0,52.0,15
19.0,21.96338577268,38.72,0.036,7.87e-09,786000000.0,52.0,15
20.0,21.96993904112,39.6,0.036,7.87e-09,786000000.0,52.0,15
21.0,21.97649230956,40.48,0.036,7.87e-09,786000000.0,52.0,15
22.0,21.983045578,41.36,0.036,7.87e-09,786000000.0,52.0,15
23.0,21.98959884644,42.24,0.036,7.87e-09,786000000.0,52.0,15
24.0,21.99615211488,43.12,0.036,7.87e-09,786000000.0,52.0,15
25.0,22.00270538332,44.0,0.036,7.87e-09,786000000.0,52.0,15
26.0,22.00925865176,44.88,0.036,7.87e-09,786000000.0,52.0,15
27.0,22.0158119202,45.76,0.036,7.87e-09,786000000.0,52.0,15
28.0,22.02717609409,46.64,0.036,7.87e-09,786000000.0,52.0,15
29.0,22.03854026798,47.52,0.036,7.87e-09,786000000.0,52.0,15
30.0,22.04990444187,48.4,0.036,7.87e-09,786000000.0,52.0,15
31.0,22.06126861576,49.28,0.036,7.87e-09,786000000.0,52.0,15
32.0,22.07263278965,50.16,0.036,7.87e-09,786000000.0,52.0,15
33.0,22.08399696354,51.04,0.036,7.87e-09,786000000.0,52.0,15
34.0,22.09536113743,51.92,0.036,7.87e-09,786000000.0,52.0,15
35.0,22.10672531132,52.8,0.036,7.87e-09,786000000.0,52.0,15
36.0,22.11808948521,53.68,0.036,7.87e-09,786000000.0,52.0,15
37.0,22.1294536591,54.56,0.036,7.87e-09,786000000.0,52.0,15
38.0,22.14545764927,55.44,0.036,7.87e-09,786000000.0,52.0,15
39.0,22.16146163944,56.32,0.036,7.87e-09,786000000.0,52.0,15
40.0,22.17746562961,57.2,0.036,7.87e-09,786000000.0,52.0,15
41.0,22.19346961978,58.08,0.036,7.87e-09,786000000.0,52.0,15
42.0,22.20947360995,58.96,0.036,7.87e-09,786000000.0,52.0,15
43.0,22.22547760012,59.84,0.036,7.87e-09,786000000.0,52.0,15
44.0,22.24148159029,60.72,0.036,7.87e-09,786000000.0,52.0,15
45.0,22.25748558046,61.6,0.036,7.87e-09,786000000.0,52.0,15
46.0,22.27348957063,62.48,0.036,7.87e-09,786000000.0,52.0,15
47.0,22.2894935608,63.36,0.036,7.87e-09,786000000.0,52.0,15
48.0,22.30549259187,64.24,0.036,7.87e-09,786000000.0,52.0,15
49.0,22.32149162294,65.12,0.036,7.87e-09,786000000.0,52.0,15
50.0,22.33749065401,66.0,0.036,7.87e-09,786000000.0,52.0,15
51.0,22.35348968508,62.94,0.036,7.87e-09,786000000.0,52.0,15
52.0,22.36948871615,62.88,0.036,7.87e-09,786000000.0,52.0,15
53.0,22.38548774722,62.82,0.036,7.87e-09,786000000.0,52.0,15
54.0,22.40148677829,62.76,0.036,7.87e-09,786000000.0,52.0,15
55.0,22.41748580936,62.7,0.036,7.87e-09,786000000.0,52.0,15
56.0,22.43348484043,62.64,0.036,7.87e-09,786000000.0,52.0,15
57.0,22.4494838715,62.58,0.036,7.87e-09,786000000.0,52.0,15
58.0,22.46416339878,62.52,0.036,7.87e-09,786000000.0,52.0,15
59.0,22.47884292606,62.46,0.036,7.87e-09,786000000.0,52.0,15
60.0,22.49352245334,62.4,0.036,7.87e-09,786000000.0,52.0,15
61.0,22.50820198062,62.34,0.036,7.87e-09,786000000.0,52.0,15
62.0,22.5228815079,62.28,0.036,7.87e-09,786000000.0,52.0,15
63.0,22.53756103518,62.22,0.036,7.87e-09,786000000.0,52.0,15
64.0,22.55224056246,62.16,0.036,7.87e-09,786000000.0,52.0,15
65.0,22.56692008974,62.1,0.036,7.87e-09,786000000.0,52.0,15
66.0,22.58159961702,62.04,0.036,7.87e-09,786000000.0,52.0,15
67.0,22.5962791443,61.98,0.036,7.87e-09,786000000.0,52.0,15
68.0,22.61015338899,61.92,0.036,7.87e-09,786000000.0,52.0,15
69.0,22.62402763368,61.86,0.036,7.87e-09,786000000.0,52.0,15
70.0,22.63790187837,61.8,0.036,7.87e-09,786000000.0,52.0,15
71.0,22.65177612306,61.74,0.036,7.87e-09,786000000.0,52.0,15
72.0,22.66565036775,61.68,0.036,7.87e-09,786000000.0,52.0,15
73.0,22.67952461244,61.62,0.036,7.87e-09,786000000.0,52.0,15
74.0,22.69339885713,61.56,0.036,7.87e-09,786000000.0,52.0,15
75.0,22.70727310182,61.5,0.036,7.87e-09,786000000.0,52.0,15
76.0,22.72114734651,61.44,0.036,7.87e-09,786000000.0,52.0,15
77.0,22.7350215912,61.38,0.036,7.87e-09,786000000.0,52.0,15
78.0,22.74828548433,61.32,0.036,7.87e-09,786000000.0,52.0,15
79.0,22.76154937746,61.26,0.036,7.87e-09,786000000.0,52.0,15
80.0,22.77481327059,61.2,0.036,7.87e-09,786000000.0,52.0,15
81.0,22.78807716372,61.14,0.036,7.87e-09,786000000.0,52.0,15
82.0,22.80134105685,61.08,0.036,7.87e-09,786000000.0,52.0,15
83.0,22.81460494998,61.02,0.036,7.87e-09,786000000.0,52.0,15
84.0,22.82786884311,60.96,0.036,7.87e-09,786000000.0,52.0,15
85.0,22.84113273624,60.9,0.036,7.87e-09,786000000.0,52.0,15
86.0,22.85439662937,60.84,0.036,7.87e-09,786000000.0,52.0,15
87.0,22.8676605225,60.78,0.036,7.87e-09,786000000.0,52.0,15
88.0,22.88040008548,60.72,0.036,7.87e-09,786000000.0,52.0,15
89.0,22.89313964846,60.66,0.036,7.87e-09,786000000.0,52.0,15
90.0,22.90587921144,60.6,0.036,7.87e-09,786000000.0,52.0,15
91.0,22.91861877442,60.54,0.036,7.87e-09,786000000.0,52.0,15
92.0,22.9313583374,60.48,0.036,7.87e-09,786000000.0,52.0,15
93.0,22.94409790038,60.42,0.036,7.87e-09,786000000.0,52.0,15
94.0,22.95683746336,60.36,0.036,7.87e-09,786000000.0,52.0,15
95.0,22.96957702634,60.3,0.036,7.87e-09,786000000.0,52.0,15
96.0,22.98231658932,60.24,0.036,7.87e-09,786000000.0,52.0,15
97.0,22.9950561523,60.18,0.036,7.87e-09,786000000.0,52.0,15
98.0,23.00769329067,60.12,0.036,7.87e-09,786000000.0,52.0,15
99.0,23.02033042904,60.06,0.036,7.87e-09,786000000.0,52.0,15
100.0,23.03296756741,60.0,0.036,7.87e-09,786000000.0,52.0,15
101.0,23.04560470578,60,0.036,7.87e-09,786000000.0,52.0,15
102.0,23.05824184415,60,0.036,7.87e-09,786000000.0,52.0,15
103.0,23.07087898252,60,0.036,7.87e-09,786000000.0,52.0,15
104.0,23.08351612089,60,0.036,7.87e-09,786000000.0,52.0,15
105.0,23.09615325926,60,0.036,7.87e-09,786000000.0,52.0,15
106.0,23.10879039763,60,0.036,7.87e-09,786000000.0,52.0,15
107.0,23.121427536,60,0.036,7.87e-09,786000000.0,52.0,15
108.0,23.1340894699,60,0.036,7.87e-09,786000000.0,52.0,15
109.0,23.1467514038,60,0.036,7.87e-09,786000000.0,52.0,15
110.0,23.1594133377,60,0.036,7.87e-09,786000000.0,52.0,15
111.0,23.1720752716,60,0.036,7.87e-09,786000000.0,52.0,15
112.0,23.1847372055,60,0.036,7.87e-09,786000000.0,52.0,15
113.0,23.1973991394,60,0.036,7.87e-09,786000000.0,52.0,15
114.0,23.2100610733,60,0.036,7.87e-09,786000000.0,52.0,15
115.0,23.2227230072,60,0.036,7.87e-09,786000000.0,52.0,15
116.0,23.2353849411,60,0.036,7.87e-09,786000000.0,52.0,15
117.0,23.248046875,60,0.036,7.87e-09,786000000.0,52.0,15
118.0,23.26069927216,60,0.036,7.87e-09,786000000.0,52.0,15
119.0,23.27335166932,60,0.036,7.87e-09,786000000.0,52.0,15
120.0,23.28600406648,60,0.036,7.87e-09,786000000.0,52.0,15
121.0,23.29865646364,60,0.036,7.87e-09,786000000.0,52.0,15
122.0,23.3113088608,60,0.036,7.87e-09,786000000.0,52.0,15
123.0,23.32396125796,60,0.036,7.87e-09,786000000.0,52.0,15
124.0,23.33661365512,60,0.036,7.87e-09,786000000.0,52.0,15
125.0,23.34926605228,60,0.036,7.87e-09,786000000.0,52.0,15
126.0,23.36191844944,60,0.036,7.87e-09,786000000.0,52.0,15
127.0,23.3745708466,60,0.036,7.87e-09,786000000.0,52.0,15
128.0,23.38720130924,60,0.036,7.87e-09,786000000.0,52.0,15
129.0,23.39983177188,60,0.036,7.87e-09,786000000.0,52.0,15
130.0,23.41246223452,60,0.036,7.87e-09,786000000.0,52.0,15
131.0,23.42509269716,60,0.036,7.87e-09,786000000.0,52.0,15
132.0,23.4377231598,60,0.036,7.87e-09,786000000.0,52.0,15
133.0,23.45035362244,60,0.036,7.87e-09,786000000.0,52.0,15
134.0,23.46298408508,60,0.036,7.87e-09,786000000.0,52.0,15
135.0,23.47561454772,60,0.036,7.87e-09,786000000.0,52.0,15
136.0,23.48824501036,60,0.036,7.87e-09,786000000.0,52.0,15
137.0,23.500875473,60,0.036,7.87e-09,786000000.0,52.0,15
138.0,23.51347866056,60,0.036,7.87e-09,786000000.0,52.0,15
139.0,23.52608184812,60,0.036,7.87e-09,786000000.0,52.0,15
140.0,23.53868503568,60,0.036,7.87e-09,786000000.0,52.0,15
141.0,23.55128822324,60,0.036,7.87e-09,786000000.0,52.0,15
142.0,23.5638914108,60,0.036,7.87e-09,786000000.0,52.0,15
143.0,23.57649459836,60,0.036,7.87e-09,786000000.0,52.0,15
144.0,23.58909778592,60,0.036,7.87e-09,786000000.0,52.0,15
145.0,23.60170097348,60,0.036,7.87e-09,786000000.0,52.0,15
146.0,23.61430416104,60,0.036,7.87e-09,786000000.0,52.0,15
147.0,23.6269073486,60,0.036,7.87e-09,786000000.0,52.0,15
148.0,23.63947963712,60,0.036,7.87e-09,786000000.0,52.0,15
149.0,23.65205192564,60,0.036,7.87e-09,786000000.0,52.0,15
150.0,23.66462421416,60,0.036,7.87e-09,786000000.0,52.0,15
151.0,23.67719650268,60,0.036,7.87e-09,786000000.0,52.0,15
152.0,23.6897687912,60,0.036,7.87e-09,786000000.0,52.0,15
153.0,23.70234107972,60,0.036,7.87e-09,786000000.0,52.0,15
154.0,23.71491336824,60,0.036,7.87e-09,786000000.0,52.0,15
155.0,23.72748565676,60,0.036,7.87e-09,786000000.0,52.0,15
156.0,23.74005794528,60,0.036,7.87e-09,786000000.0,52.0,15
157.0,23.7526302338,60,0.036,7.87e-09,786000000.0,52.0,15
158.0,23.76516952518,60,0.036,7.87e-09,786000000.0,52.0,15
159.0,23.77770881656,60,0.036,7.87e-09,786000000.0,52.0,15
160.0,23.79024810794,60,0.036,7.87e-09,786000000.0,52.0,15
161.0,23.80278739932,60,0.036,7.87e-09,786000000.0,52.0,15
162.0,23.8153266907,60,0.036,7.87e-09,786000000.0,52.0,15
163.0,23.82786598208,60,0.036,7.87e-09,786000000.0,52.0,15
164.0,23.84040527346,60,0.036,7.87e-09,786000000.0,52.0,15
165.0,23.85294456484,60,0.036,7.87e-09,786000000.0,52.0,15
166.0,23.86548385622,60,0.036,7.87e-09,786000000.0,52.0,15
167.0,23.8780231476,60,0.036,7.87e-09,786000000.0,52.0,15
168.0,23.8905275345,60,0.036,7.87e-09,786000000.0,52.0,15
169.0,23.9030319214,60,0.036,7.87e-09,786000000.0,52.0,15
170.0,23.9155363083,60,0.036,7.87e-09,786000000.0,52.0,15
171.0,23.9280406952,60,0.036,7.87e-09,786000000.0,52.0,15
172.0,23.9405450821,60,0.036,7.87e-09,786000000.0,52.0,15
173.0,23.953049469,60,0.036,7.87e-09,786000000.0,52.0,15
174.0,23.9655538559,60,0.036,7.87e-09,786000000.0,52.0,15
175.0,23.9780582428,60,0.036,7.87e-09,786000000.0,52.0,15
176.0,23.9905626297,60,0.036,7.87e-09,786000000.0,52.0,15
177.0,24.0030670166,60,0.036,7.87e-09,786000000.0,52.0,15
178.0,24.01553516388,60,0.036,7.87e-09,786000000.0,52.0,15
179.0,24.02800331116,60,0.036,7.87e-09,786000000.0,52.0,15
180.0,24.04047145844,60,0.036,7.87e-09,786000000.0,52.0,15
181.0,24.05293960572,60,0.036,7.87e-09,786000000.0,52.0,15
182.0,24.065407753,60,0.036,7.87e-09,786000000.0,52.0,15
183.0,24.07787590028,60,0.036,7.87e-09,786000000.0,52.0,15
184.0,24.09034404756,60,0.036,7.87e-09,786000000.0,52.0,15
185.0,24.10281219484,60,0.036,7.87e-09,786000000.0,52.0,15
186.0,24.11528034212,60,0.036,7.87e-09,786000000.0,52.0,15
187.0,24.1277484894,60,0.036,7.87e-09,786000000.0,52.0,15
188.0,24.14017925264,60,0.036,7.87e-09,786000000.0,52.0,15
189.0,24.15261001588,60,0.036,7.87e-09,786000000.0,52.0,15
190.0,24.16504077912,60,0.036,7.87e-09,786000000.0,52.0,15
191.0,24.17747154236,60,0.036,7.87e-09,786000000.0,52.0,15
192.0,24.1899023056,60,0.036,7.87e-09,786000000.0,52.0,15
193.0,24.20233306884,60,0.036,7.87e-09,786000000.0,52.0,15
194.0,24.21476383208,60,0.036,7.87e-09,786000000.0,52.0,15
195.0,24.22719459532,60,0.036,7.87e-09,786000000.0,52.0,15
196.0,24.23962535856,60,0.036,7.87e-09,786000000.0,52.0,15
197.0,24.2520561218,60,0.036,7.87e-09,786000000.0,52.0,15
198.0,24.26444892881,60,0.036,7.87e-09,786000000.0,52.0,15
199.0,24.27684173582,60,0.036,7.87e-09,786000000.0,52.0,15
200.0,24.28923454283,60,0.036,7.87e-09,786000000.0,52.0,15
201.0,24.30162734984,60,0.036,7.87e-09,786000000.0,52.0,15
202.0,24.31402015685,60,0.036,7.87e-09,786000000.0,52.0,15
203.0,24.32641296386,60,0.036,7.87e-09,786000000.0,52.0,15
204.0,24.33880577087,60,0.036,7.87e-09,786000000.0,52.0,15
205.0,24.35119857788,60,0.036,7.87e-09,786000000.0,52.0,15
206.0,24.36359138489,60,0.036,7.87e-09,786000000.0,52.0,15
207.0,24.3759841919,60,0.036,7.87e-09,786000000.0,52.0,15
208.0,24.38833808899,60,0.036,7.87e-09,786000000.0,52.0,15
209.0,24.40069198608,60,0.036,7.87e-09,786000000.0,52.0,15
210.0,24.41304588317,60,0.036,7.87e-09,786000000.0,52.0,15
211.0,24.42539978026,60,0.036,7.87e-09,786000000.0,52.0,15
212.0,24.43775367735,60,0.036,7.87e-09,786000000.0,52.0,15
213.0,24.45010757444,60,0.036,7.87e-09,786000000.0,52.0,15
214.0,24.46246147153,60,0.036,7.87e-09,786000000.0,52.0,15
215.0,24.47481536862,60,0.036,7.87e-09,786000000.0,52.0,15
216.0,24.48716926571,60,0.036,7.87e-09,786000000.0,52.0,15
217.0,24.4995231628,60,0.036,7.87e-09,786000000.0,52.0,15
218.0,24.51183776852,60,0.036,7.87e-09,786000000.0,52.0,15
219.0,24.52415237424,60,0.036,7.87e-09,786000000.0,52.0,15
220.0,24.53646697996,60,0.036,7.87e-09,786000000.0,52.0,15
221.0,24.54878158568,60,0.036,7.87e-09,786000000.0,52.0,15
222.0,24.5610961914,60,0.036,7.87e-09,786000000.0,52.0,15
223.0,24.57341079712,60,0.036,7.87e-09,786000000.0,52.0,15
224.0,24.58572540284,60,0.036,7.87e-09,786000000.0,52.0,15
225.0,24.59804000856,60,0.036,7.87e-09,786000000.0,52.0,15
226.0,24.61035461428,60,0.036,7.87e-09,786000000.0,52.0,15
227.0,24.62266922,60,0.036,7.87e-09,786000000.0,52.0,15
228.0,24.63494415286,60,0.036,7.87e-09,786000000.0,52.0,15
229.0,24.64721908572,60,0.036,7.87e-09,786000000.0,52.0,15
230.0,24.65949401858,60,0.036,7.87e-09,786000000.0,52.0,15
231.0,24.67176895144,60,0.036,7.87e-09,786000000.0,52.0,15
232.0,24.6840438843,60,0.036,7.87e-09,786000000.0,52.0,15
233.0,24.69631881716,60,0.036,7.87e-09,786000000.0,52.0,15
234.0,24.70859375002,60,0.036,7.87e-09,786000000.0,52.0,15
235.0,24.72086868288,60,0.036,7.87e-09,786000000.0,52.0,15
236.0,24.73314361574,60,0.036,7.87e-09,786000000.0,52.0,15
237.0,24.7454185486,60,0.036,7.87e-09,786000000.0,52.0,15
238.0,24.75765342714,60,0.036,7.87e-09,786000000.0,52.0,15
239.0,24.76988830568,60,0.036,7.87e-09,786000000.0,52.0,15
240.0,24.78212318422,60,0.036,7.87e-09,786000000.0,52.0,15
241.0,24.79435806276,60,0.036,7.87e-09,786000000.0,52.0,15
242.0,24.8065929413,60,0.036,7.87e-09,786000000.0,52.0,15
243.0,24.81882781984,60,0.036,7.87e-09,786000000.0,52.0,15
244.0,24.83106269838,60,0.036,7.87e-09,786000000.0,52.0,15
245.0,24.84329757692,60,0.036,7.87e-09,786000000.0,52.0,15
246.0,24.85553245546,60,0.036,7.87e-09,786000000.0,52.0,15
247.0,24.867767334,60,0.036,7.87e-09,786000000.0,52.0,15
248.0,24.87996177675,60,0.036,7.87e-09,786000000.0,52.0,15
249.0,24.8921562195,60,0.036,7.87e-09,786000000.0,52.0,15
250.0,24.90435066225,60,0.036,7.87e-09,786000000.0,52.0,15
251.0,24.916545105,60,0.036,7.87e-09,786000000.0,52.0,15
252.0,24.92873954775,60,0.036,7.87e-09,786000000.0,52.0,15
253.0,24.9409339905,60,0.036,7.87e-09,786000000.0,52.0,15
254.0,24.95312843325,60,0.036,7.87e-09,786000000.0,52.0,15
255.0,24.965322876,60,0.036,7.87e-09,786000000.0,52.0,15
256.0,24.97751731875,60,0.036,7.87e-09,786000000.0,52.0,15
257.0,24.9897117615,60,0.036,7.87e-09,786000000.0,52.0,15
258.0,25.00186576846,60,0.036,7.87e-09,786000000.0,52.0,15
259.0,25.01401977542,60,0.036,7.87e-09,786000000.0,52.0,15
260.0,25.02617378238,60,0.036,7.87e-09,786000000.0,52.0,15
261.0,25.03832778934,60,0.036,7.87e-09,786000000.0,52.0,15
262.0,25.0504817963,60,0.036,7.87e-09,786000000.0,52.0,15
263.0,25.06263580326,60,0.036,7.87e-09,786000000.0,52.0,15
264.0,25.07478981022,60,0.036,7.87e-09,786000000.0,52.0,15
265.0,25.08694381718,60,0.036,7.87e-09,786000000.0,52.0,15
266.0,25.09909782414,60,0.036,7.87e-09,786000000.0,52.0,15
267.0,25.1112518311,60,0.036,7.87e-09,786000000.0,52.0,15
268.0,25.12336521153,60,0.036,7.87e-09,786000000.0,52.0,15
269.0,25.13547859196,60,0.036,7.87e-09,786000000.0,52.0,15
270.0,25.14759197239,60,0.036,7.87e-09,786000000.0,52.0,15
271.0,25.15970535282,60,0.036,7.87e-09,786000000.0,52.0,15
272.0,25.17181873325,60,0.036,7.87e-09,786000000.0,52.0,15
273.0,25.18393211368,60,0.036,7.87e-09,786000000.0,52.0,15
274.0,25.19604549411,60,0.036,7.87e-09,786000000.0,52.0,15
275.0,25.20815887454,60,0.036,7.87e-09,786000000.0,52.0,15
276.0,25.22027225497,60,0.036,7.87e-09,786000000.0,52.0,15
277.0,25.2323856354,60,0.036,7.87e-09,786000000.0,52.0,15
278.0,25.24445819857,60,0.036,7.87e-09,786000000.0,52.0,15
279.0,25.25653076174,60,0.036,7.87e-09,786000000.0,52.0,15
280.0,25.26860332491,60,0.036,7.87e-09,786000000.0,52.0,15
281.0,25.28067588808,60,0.036,7.87e-09,786000000.0,52.0,15
282.0,25.29274845125,60,0.036,7.87e-09,786000000.0,52.0,15
283.0,25.30482101442,60,0.036,7.87e-09,786000000.0,52.0,15
284.0,25.31689357759,60,0.036,7.87e-09,786000000.0,52.0,15
285.0,25.32896614076,60,0.036,7.87e-09,786000000.0,52.0,15
286.0,25.34103870393,60,0.036,7.87e-09,786000000.0,52.0,15
287.0,25.3531112671,60,0.036,7.87e-09,786000000.0,52.0,15
288.0,25.36514301301,60,0.036,7.87e-09,786000000.0,52.0,15
289.0,25.37717475892,60,0.036,7.87e-09,786000000.0,52.0,15
290.0,25.38920650483,60,0.036,7.87e-09,786000000.0,52.0,15
291.0,25.40123825074,60,0.036,7.87e-09,786000000.0,52.0,15
292.0,25.41326999665,60,0.036,7.87e-09,786000000.0,52.0,15
293.0,25.42530174256,60,0.036,7.87e-09,786000000.0,52.0,15
294.0,25.43733348847,60,0.036,7.87e-09,786000000.0,52.0,15
295.0,25.44936523438,60,0.036,7.87e-09,786000000.0,52.0,15
296.0,25.46139698029,60,0.036,7.87e-09,786000000.0,52.0,15
297.0,25.4734287262,60,0.036,7.87e-09,786000000.0,52.0,15
298.0,25.48541965485,60,0.036,7.87e-09,786000000.0,52.0,15
299.0,25.4974105835,60,0.036,7.87e-09,786000000.0,52.0,15
300.0,25.50940151215,60,0.036,7.87e-09,786000000.0,52.0,15
301.0,25.5213924408,60,0.036,7.87e-09,786000000.0,52.0,15
302.0,25.53338336945,60,0.036,7.87e-09,786000000.0,52.0,15
303.0,25.5453742981,60,0.036,7.87e-09,786000000.0,52.0,15
304.0,25.55736522675,60,0.036,7.87e-09,786000000.0,52.0,15
305.0,25.5693561554,60,0.036,7.87e-09,786000000.0,52.0,15
306.0,25.58134708405,60,0.036,7.87e-09,786000000.0,52.0,15
307.0,25.5933380127,60,0.036,7.87e-09,786000000.0,52.0,15
308.0,25.60528793335,60,0.036,7.87e-09,786000000.0,52.0,15
309.0,25.617237854,60,0.036,7.87e-09,786000000.0,52.0,15
310.0,25.62918777465,60,0.036,7.87e-09,786000000.0,52.0,15
311.0,25.6411376953,60,0.036,7.87e-09,786000000.0,52.0,15
312.0,25.65308761595,60,0.036,7.87e-09,786000000.0,52.0,15
313.0,25.6650375366,60,0.036,7.87e-09,786000000.0,52.0,15
314.0,25.67698745725,60,0.036,7.87e-09,786000000.0,52.0,15
315.0,25.6889373779,60,0.036,7.87e-09,786000000.0,52.0,15
316.0,25.70088729855,60,0.036,7.87e-09,786000000.0,52.0,15
317.0,25.7128372192,60,0.036,7.87e-09,786000000.0,52.0,15
318.0,25.7247463226,60,0.036,7.87e-09,786000000.0,52.0,15
319.0,25.736655426,60,0.036,7.87e-09,786000000.0,52.0,15
320.0,25.7485645294,60,0.036,7.87e-09,786000000.0,52.0,15
321.0,25.7604736328,60,0.036,7.87e-09,786000000.0,52.0,15
322.0,25.7723827362,60,0.036,7.87e-09,786000000.0,52.0,15
323.0,25.7842918396,60,0.036,7.87e-09,786000000.0,52.0,15
324.0,25.796200943,60,0.036,7.87e-09,786000000.0,52.0,15
325.0,25.8081100464,60,0.036,7.87e-09,786000000.0,52.0,15
326.0,25.8200191498,60,0.036,7.87e-09,786000000.0,52.0,15
327.0,25.8319282532,60,0.036,7.87e-09,786000000.0,52.0,15
328.0,25.84379673007,60,0.036,7.87e-09,786000000.0,52.0,15
329.0,25.85566520694,60,0.036,7.87e-09,786000000.0,52.0,15
330.0,25.86753368381,60,0.036,7.87e-09,786000000.0,52.0,15
331.0,25.87940216068,60,0.036,7.87e-09,786000000.0,52.0,15
332.0,25.89127063755,60,0.036,7.87e-09,786000000.0,52.0,15
333.0,25.90313911442,60,0.036,7.87e-09,786000000.0,52.0,15
334.0,25.91500759129,60,0.036,7.87e-09,786000000.0,52.0,15
335.0,25.92687606816,60,0.036,7.87e-09,786000000.0,52.0,15
336.0,25.93874454503,60,0.036,7.87e-09,786000000.0,52.0,15
